1584324221.00
64.000000
-0.00
-0.00
-0.00
-0.00
-0.00
-0.00
-0.00
-0.00
-0.00
-0.00
0.00
0.01
0.01
-0.00
-0.03
-0.05
-0.05
0.00
0.13
0.36
0.66
1.01
1.37
1.72
2.06
2.40
2.79
3.24
3.80
4.42
5.06
5.66
6.20
6.68
7.15
7.68
8.31
9.14
10.09
11.04
11.88
12.56
13.14
13.76
14.65
15.96
17.91
20.32
22.90
25.38
27.58
29.57
31.68
34.32
37.81
42.54
48.15
54.10
59.83
64.97
69.58
74.14
79.34
85.71
93.76
103.00
112.62
121.73
129.77
136.75
143.30
150.75
157.77
166.64
177.95
191.79
206.97
220.57
228.25
225.36
208.53
176.87
132.76
80.05
23.07
-34.94
-92.44
-149.16
-205.23
-260.37
-313.74
-363.87
-409.83
-450.91
-486.50
-515.74
-537.23
-549.22
-549.96
-538.37
-514.21
-478.67
-433.88
-382.45
-327.02
-269.84
-212.63
-156.66
-102.95
-52.37
-5.90
35.58
71.43
101.35
125.50
144.38
158.69
169.15
176.37
180.75
182.57
182.07
179.51
175.23
169.65
163.18
156.15
148.81
141.30
133.69
126.02
118.33
110.69
103.16
95.80
88.68
81.83
75.25
68.95
62.95
57.25
51.86
46.78
42.03
37.59
33.45
29.61
26.07
22.81
19.83
17.11
14.67
12.48
10.54
8.83
7.35
6.07
4.97
4.05
3.27
2.62
2.09
1.65
1.30
1.01
0.79
0.61
0.47
0.37
0.29
0.23
0.19
0.16
0.14
0.14
0.15
0.16
0.18
0.21
0.24
0.27
0.31
0.36
0.40
0.45
0.49
0.54
0.59
0.64
0.70
0.76
0.82
0.89
0.97
1.05
1.15
1.25
1.37
1.50
1.65
1.81
2.00
2.21
2.43
2.68
2.96
3.27
3.60
3.97
4.37
4.81
5.28
5.79
6.34
6.93
7.56
8.24
8.96
9.72
10.53
11.39
12.28
13.23
14.23
15.29
16.41
17.60
18.84
20.11
21.38
22.57
23.61
24.39
24.78
24.66
23.95
22.53
20.40
17.55
14.07
10.05
5.69
1.17
-3.28
-7.46
-11.18
-14.29
-16.69
-18.35
-19.28
-19.51
-19.15
-18.29
-17.04
-15.53
-13.86
-12.13
-10.41
-8.74
-7.07
-5.44
-3.79
-2.09
-0.32
1.51
3.38
5.25
7.12
9.10
11.12
13.22
15.44
17.79
20.25
22.74
25.21
27.70
30.38
33.16
36.13
39.37
42.89
46.58
50.22
53.65
56.84
60.07
63.30
66.75
70.65
74.99
79.53
83.75
87.17
89.59
91.32
92.36
93.09
93.82
94.35
93.83
90.85
83.55
69.81
52.57
33.19
13.05
-6.71
-25.58
-43.69
-61.72
-80.67
-101.65
-125.46
-152.91
-183.29
-213.99
-240.65
-258.19
-262.57
-252.41
-229.81
-199.72
-168.73
-142.10
-122.41
-109.31
-100.51
-93.32
-85.76
-77.06
-67.25
-57.12
-47.37
-38.63
-31.57
-26.84
-24.83
-25.35
-27.46
-29.73
-30.91
-30.37
-28.44
-26.31
-25.38
-26.52
-29.44
-32.50
-33.15
-28.83
-18.01
-0.92
20.22
41.73
59.46
70.20
72.76
68.32
59.93
51.36
45.71
44.49
47.37
52.61
57.96
61.41
61.77
58.73
52.85
45.32
37.68
31.54
28.14
28.01
30.73
35.08
39.51
42.66
43.78
42.81
40.21
36.66
32.80
29.05
25.64
22.61
19.81
16.92
13.63
9.72
5.32
0.90
-2.86
-5.41
-6.58
-6.69
-6.39
-6.43
-7.28
-9.06
-11.65
-14.86
-18.67
-23.23
-28.65
-34.89
-41.66
-48.41
-54.54
-59.34
-62.06
-61.95
-58.38
-51.10
-40.49
-27.60
-13.87
-0.74
10.77
20.30
28.05
34.50
40.08
44.86
48.65
50.97
51.27
49.20
44.89
39.11
33.17
28.57
26.35
26.61
28.29
29.50
28.31
23.65
15.90
6.89
-0.77
-4.63
-3.38
2.69
11.89
21.73
29.76
34.22
34.38
30.54
23.72
15.32
6.76
-0.71
-6.26
-9.52
-10.75
-10.69
-10.47
-11.12
-13.13
-16.18
-19.18
-20.86
-20.44
-18.19
-15.54
-14.72
-17.89
-26.33
-39.84
-56.57
-73.51
-87.08
-94.09
-92.46
-81.89
-63.98
-41.85
-19.26
0.41
15.05
24.15
28.57
29.78
29.28
28.13
26.95
26.12
26.09
27.30
29.93
33.60
37.30
39.52
38.81
34.37
26.50
16.73
7.38
0.79
-1.50
0.68
6.15
12.93
19.10
23.45
25.69
26.14
25.23
23.05
19.47
14.36
8.17
2.11
-2.06
-2.79
0.48
6.89
14.24
19.64
20.50
15.38
4.50
-10.38
-26.64
-41.67
-53.73
-62.29
-67.84
-71.27
-73.18
-73.46
-71.43
-66.27
-57.73
-46.43
-33.86
-21.84
-11.68
-3.66
3.10
10.15
18.94
30.07
42.72
54.70
63.04
65.03
59.38
46.96
30.79
15.13
4.02
-0.06
3.06
11.49
22.20
32.17
39.28
42.72
42.77
40.36
36.56
32.21
27.78
23.47
19.37
15.79
13.34
12.63
13.85
16.33
18.48
18.46
14.96
7.95
-1.28
-10.69
-18.25
-22.72
-23.91
-22.53
-19.78
-17.12
-16.06
-18.05
-24.11
-34.24
-47.03
-59.76
-69.13
-72.45
-68.57
-58.36
-44.22
-29.06
-15.29
-4.23
3.96
9.72
13.64
16.13
17.57
18.45
19.49
21.32
24.21
27.86
31.51
34.36
35.98
36.55
36.63
36.72
36.75
35.94
33.12
27.43
19.11
9.72
1.86
-1.91
-0.22
6.44
15.82
24.82
30.65
31.76
28.19
21.29
13.14
5.92
1.50
1.01
4.59
11.09
18.17
22.81
22.30
15.32
2.60
-13.21
-28.41
-39.55
-44.59
-43.36
-37.48
-29.74
-23.35
-21.26
-25.52
-36.63
-53.09
-71.26
-86.21
-93.11
-89.03
-74.10
-51.51
-26.23
-3.19
14.41
25.73
31.80
34.49
35.45
35.63
35.35
34.60
33.33
31.55
29.30
26.69
23.90
21.16
18.72
16.75
15.21
13.91
12.57
11.03
9.28
7.53
6.15
5.50
5.90
7.61
10.84
15.69
22.02
29.21
36.07
41.00
42.33
38.93
30.75
18.96
5.68
-6.84
-16.94
-24.01
-28.41
-30.92
-32.24
-32.72
-32.51
-31.96
-31.82
-33.04
-36.31
-41.44
-47.16
-51.42
-52.19
-48.32
-39.94
-28.43
-15.81
-3.99
5.84
13.38
19.01
23.27
26.56
28.93
30.20
30.30
29.46
28.19
27.07
26.42
26.15
25.80
24.95
23.46
21.69
20.25
19.77
20.51
22.30
24.61
26.80
28.35
28.94
28.45
26.94
24.57
21.58
18.29
14.97
11.83
8.96
6.37
4.12
2.31
1.03
0.32
0.03
-0.22
-0.95
-2.65
-5.57
-9.63
-14.47
-19.54
-24.33
-28.48
-31.86
-34.62
-37.08
-39.73
-43.00
-47.05
-51.50
-55.33
-57.01
-55.05
-48.54
-37.68
-23.84
-9.18
4.09
14.47
21.48
25.66
27.99
29.40
30.38
31.03
31.20
30.87
30.18
29.33
28.42
27.30
25.67
23.33
20.47
17.72
15.97
15.94
17.81
21.07
24.75
27.77
29.41
29.47
28.26
26.32
24.14
22.02
19.99
17.96
15.80
13.38
10.67
7.63
4.35
1.03
-2.06
-4.58
-6.32
-7.36
-8.08
-9.06
-10.87
-13.80
-17.75
-22.19
-26.38
-29.60
-31.43
-31.96
-31.78
-31.92
-33.45
-37.05
-42.58
-48.90
-54.14
-56.27
-53.92
-46.83
-36.08
-23.59
-11.40
-1.03
6.86
12.41
16.13
18.58
20.05
20.65
20.41
19.38
17.72
15.59
13.13
10.45
7.65
4.97
2.74
1.36
1.21
2.43
4.90
8.17
11.57
14.33
15.86
15.94
14.80
13.03
11.34
10.25
9.92
10.04
10.12
9.65
8.43
6.59
4.56
2.82
1.64
1.00
0.54
-0.28
-1.92
-4.57
-8.03
-11.82
-15.35
-18.11
-19.84
-20.55
-20.53
-20.28
-20.42
-21.53
-23.87
-27.22
-30.73
-33.07
-32.83
-29.13
-21.96
-12.31
-1.80
7.84
15.41
20.52
23.53
25.17
26.09
26.59
26.60
25.91
24.44
22.36
20.03
17.77
15.72
13.83
12.00
10.27
8.94
8.44
9.06
10.77
13.15
15.51
17.23
17.96
17.69
16.68
15.26
13.68
12.02
10.32
8.58
6.87
5.33
4.06
3.12
2.46
1.91
1.30
0.44
-0.73
-2.15
-3.64
-4.97
-6.06
-7.07
-8.39
-10.46
-13.52
-17.39
-21.47
-24.98
-27.32
-28.27
-28.14
-27.57
-27.27
-27.86
-29.65
-32.59
-36.16
-39.40
-41.13
-40.21
-36.00
-28.62
-19.04
-8.73
0.82
8.52
13.94
17.28
19.04
19.80
19.99
19.83
19.50
19.07
18.58
17.98
17.08
15.62
13.43
10.65
7.80
5.70
5.11
6.40
9.33
13.10
16.64
19.08
19.98
19.51
18.23
16.81
15.75
15.25
15.20
15.27
15.06
14.25
12.69
10.48
7.91
5.46
3.55
2.39
1.86
1.57
1.00
-0.17
-2.01
-4.22
-6.44
-8.37
-9.96
-11.36
-12.76
-14.28
-15.94
-17.72
-19.62
-21.71
-23.93
-25.94
-27.32
-27.69
-27.16
-26.47
-26.77
-29.03
-33.35
-38.72
-43.19
-44.71
-42.00
-35.12
-25.40
-14.81
-5.17
2.49
8.01
11.84
14.46
16.19
17.02
16.88
15.82
14.07
11.96
9.74
7.51
5.21
2.85
0.59
-1.21
-2.15
-1.94
-0.57
1.74
4.68
7.93
11.22
14.27
16.66
17.96
17.86
16.36
13.90
11.21
9.02
7.70
7.18
6.97
6.54
5.51
3.89
1.99
0.24
-0.98
-1.59
-1.77
-1.98
-2.69
-4.21
-6.57
-9.43
-12.32
-14.77
-16.58
-17.80
-18.64
-19.42
-20.42
-21.90
-24.06
-26.98
-30.33
-33.33
-34.79
-33.56
-28.97
-21.35
-11.92
-2.43
5.56
11.21
14.57
16.36
17.44
18.34
19.22
19.85
19.97
19.43
18.24
16.48
14.21
11.45
8.29
4.98
2.02
-0.02
-0.64
0.34
2.67
5.78
8.99
11.75
13.72
14.80
15.08
14.64
13.58
12.05
10.28
8.60
7.32
6.64
6.44
6.36
5.91
4.70
2.67
0.10
-2.52
-4.75
-6.37
-7.49
-8.43
-9.53
-11.02
-13.01
-15.49
-18.34
-21.30
-23.95
-25.87
-26.84
-27.12
-27.47
-28.80
-31.55
-35.27
-38.50
-39.38
-36.44
-29.38
-19.24
-7.96
2.39
10.43
15.81
19.03
20.98
22.40
23.60
24.43
24.51
23.47
21.20
17.87
13.92
9.84
6.08
2.96
0.74
-0.37
-0.15
1.47
4.35
7.97
11.58
14.40
15.93
16.10
15.24
13.94
12.72
11.87
11.43
11.19
10.89
10.23
9.00
7.10
4.61
1.83
-0.75
-2.64
-3.50
-3.44
-2.94
-2.78
-3.64
-5.85
-9.20
-13.05
-16.53
-18.97
-20.06
-20.04
-19.52
-19.42
-20.67
-23.92
-29.32
-36.27
-43.44
-49.04
-51.38
-49.50
-43.55
-34.77
-25.03
-16.05
-8.85
-3.53
0.49
3.92
7.15
10.09
12.33
13.50
13.45
12.36
10.56
8.36
5.94
3.42
0.97
-1.08
-2.29
-2.21
-0.55
2.60
6.80
11.38
15.61
18.96
21.26
22.73
23.81
24.91
26.14
27.22
27.61
26.74
24.42
20.92
17.01
13.64
11.52
10.85
11.16
11.46
10.64
7.76
2.44
-5.02
-13.72
-22.40
-29.74
-34.79
-37.26
-37.66
-37.12
-36.98
-38.17
-40.67
-43.41
-44.66
-42.80
-37.06
-27.94
-16.93
-5.96
3.41
10.43
15.25
18.52
20.92
22.83
24.22
24.87
24.57
23.32
21.32
18.79
15.89
12.65
9.11
5.52
2.41
0.57
0.68
3.02
7.23
12.38
17.38
21.23
23.43
23.92
22.98
21.01
18.46
15.69
13.03
10.70
8.77
7.15
5.59
3.91
2.07
0.24
-1.34
-2.53
-3.49
-4.58
-6.19
-8.47
-11.27
-14.12
-16.50
-18.17
-19.19
-19.92
-20.85
-22.40
-24.90
-28.58
-33.50
-39.39
-45.47
-50.37
-52.42
-50.17
-43.09
-31.92
-18.49
-5.13
6.21
14.61
20.25
24.02
26.86
29.28
31.25
32.41
32.53
31.64
29.98
27.85
25.31
22.30
18.79
15.09
11.83
9.86
9.80
11.74
15.12
18.94
22.10
23.86
24.04
22.93
21.11
19.11
17.22
15.45
13.67
11.74
9.64
7.48
5.46
3.71
2.30
1.13
-0.01
-1.45
-3.55
-6.56
-10.50
-15.07
-19.66
-23.58
-26.24
-27.45
-27.44
-26.91
-26.82
-28.15
-31.66
-37.44
-44.75
-51.99
-57.08
-58.10
-54.05
-45.22
-33.17
-20.05
-7.84
2.30
10.20
16.32
21.26
25.32
28.44
30.27
30.48
28.99
25.96
21.78
16.94
12.00
7.49
3.86
1.50
0.67
1.49
3.87
7.55
12.01
16.58
20.59
23.50
25.11
25.55
25.11
24.13
22.79
21.11
19.08
16.77
14.36
12.09
10.11
8.38
6.64
4.55
1.83
-1.63
-5.68
-10.00
-14.15
-17.73
-20.47
-22.38
-23.80
-25.42
-28.02
-32.12
-37.63
-43.62
-48.41
-50.11
-47.31
-39.61
-27.86
-13.88
0.14
12.32
21.59
27.77
31.36
33.17
33.95
34.14
33.91
33.19
31.84
29.80
27.06
23.77
20.20
16.73
13.88
12.14
11.88
13.15
15.60
18.53
21.13
22.73
23.05
22.26
20.87
19.49
18.49
17.96
17.59
16.97
15.70
13.64
10.97
8.08
5.45
3.34
1.75
0.34
-1.40
-3.89
-7.33
-11.62
-16.49
-21.49
-26.25
-30.35
-33.50
-35.60
-36.95
-38.23
-40.26
-43.57
-47.84
-51.73
-53.19
-50.32
-42.27
-29.79
-15.03
-0.69
11.06
19.29
24.41
27.59
29.97
32.11
33.83
34.61
34.06
32.31
29.91
27.58
25.75
24.39
23.11
21.49
19.48
17.47
16.19
16.26
17.89
20.71
23.97
26.83
28.74
29.58
29.52
28.68
26.87
23.57
18.28
11.06
2.92
-4.26
-8.47
-8.53
-4.75
1.05
6.39
9.24
8.83
5.78
1.41
-3.13
-7.39
-11.61
-16.19
-21.14
-26.05
-30.43
-34.15
-37.66
-41.65
-46.33
-50.91
-53.62
-52.45
-46.13
-34.95
-20.82
-6.57
5.21
13.09
17.22
18.91
19.77
20.95
22.66
24.39
25.28
24.70
22.52
19.13
15.22
11.53
8.60
6.68
5.76
5.70
6.35
7.65
9.64
12.28
15.40
18.58
21.29
23.02
23.49
22.80
21.35
19.63
18.00
16.55
15.06
13.27
10.99
8.25
5.27
2.29
-0.52
-3.11
-5.47
-7.60
-9.38
-10.72
-11.58
-12.10
-12.57
-13.49
-15.40
-18.74
-23.66
-29.85
-36.41
-41.99
-45.08
-44.50
-39.77
-31.36
-20.57
-9.11
1.38
9.77
15.64
19.18
21.02
21.85
22.23
22.46
22.66
22.74
22.59
22.04
20.94
19.19
16.92
14.43
12.23
10.86
10.71
11.80
13.81
16.14
18.23
19.69
20.37
20.34
19.81
18.97
17.88
16.54
14.85
12.72
10.21
7.54
5.06
3.12
1.83
0.94
-0.09
-1.80
-4.45
-7.86
-11.48
-14.72
-17.33
-19.50
-21.75
-24.49
-27.77
-31.24
-34.40
-37.00
-39.12
-41.05
-42.83
-43.97
-43.47
-40.27
-33.88
-24.77
-14.35
-4.44
3.50
8.85
12.00
13.94
15.66
17.69
19.92
21.87
23.00
23.09
22.23
20.66
18.58
16.06
13.11
10.00
7.27
5.65
5.79
7.89
11.55
15.86
19.79
22.44
23.46
22.92
21.30
19.20
17.12
15.40
14.11
13.17
12.30
11.22
9.67
7.59
5.10
2.57
0.44
-0.99
-1.69
-1.94
-2.25
-3.14
-4.94
-7.68
-11.10
-14.73
-18.06
-20.64
-22.30
-23.15
-23.61
-24.34
-25.98
-28.85
-32.62
-36.30
-38.45
-37.66
-33.12
-24.99
-14.47
-3.34
6.59
14.13
18.94
21.49
22.63
23.07
23.14
22.76
21.76
20.09
17.98
15.73
13.61
11.60
9.53
7.26
4.93
2.97
1.95
2.30
4.07
6.85
9.95
12.64
14.35
14.85
14.19
12.70
10.79
8.87
7.25
6.02
5.07
4.17
3.02
1.44
-0.55
-2.72
-4.66
-6.03
-6.73
-7.02
-7.44
-8.57
-10.75
-13.86
-17.40
-20.67
-23.09
-24.34
-24.50
-24.00
-23.59
-24.13
-26.43
-30.81
-36.82
-43.09
-47.65
-48.64
-45.03
-37.11
-26.38
-14.92
-4.59
3.56
9.45
13.55
16.48
18.60
19.97
20.50
20.16
19.08
17.45
15.50
13.39
11.30
9.45
8.07
7.40
7.56
8.50
10.03
11.93
13.92
15.80
17.33
18.30
18.54
18.03
16.95
15.57
14.22
13.00
11.81
10.38
8.45
5.95
3.12
0.43
-1.64
-2.80
-3.18
-3.27
-3.73
-5.14
-7.68
-11.10
-14.81
-18.16
-20.68
-22.29
-23.31
-24.28
-25.78
-28.15
-31.31
-34.65
-37.16
-37.66
-35.24
-29.59
-21.16
-11.19
-1.27
7.16
13.21
16.77
18.38
18.89
19.06
19.30
19.61
19.77
19.50
18.64
17.18
15.18
12.76
10.09
7.45
5.26
3.98
4.00
5.38
7.85
10.86
13.75
15.97
17.22
17.45
16.79
15.47
13.67
11.58
9.40
7.33
5.59
4.26
3.31
2.48
1.51
0.22
-1.32
-2.81
-3.92
-4.48
-4.70
-5.10
-6.28
-8.61
-11.98
-15.88
-19.52
-22.27
-23.77
-24.13
-23.78
-23.40
-23.71
-25.24
-28.05
-31.53
-34.44
-35.27
-32.80
-26.65
-17.56
-7.11
2.85
10.93
16.61
20.16
22.25
23.44
23.98
23.88
23.11
21.80
20.25
18.75
17.33
15.79
13.85
11.46
8.90
6.79
5.83
6.38
8.37
11.22
14.12
16.34
17.49
17.55
16.81
15.65
14.39
13.20
12.11
11.06
9.94
8.57
6.80
4.54
1.86
-0.99
-3.51
-5.29
-6.05
-5.96
-5.55
-5.55
-6.64
-9.13
-12.85
-17.24
-21.56
-25.06
-27.21
-27.80
-27.09
-25.81
-25.02
-25.82
-28.85
-33.93
-39.84
-44.65
-46.41
-43.88
-37.07
-27.18
-16.14
-5.77
2.74
9.10
13.64
16.91
19.32
20.96
21.73
21.51
20.32
18.31
15.71
12.73
9.61
6.58
3.93
1.98
1.01
1.19
2.55
4.93
8.01
11.37
14.48
16.87
18.17
18.26
17.33
15.76
14.06
12.64
11.67
11.00
10.28
9.16
7.50
5.40
3.25
1.49
0.41
-0.05
-0.23
-0.62
-1.68
-3.58
-6.24
-9.36
-12.57
-15.55
-18.07
-20.00
-21.31
-22.17
-22.92
-24.02
-25.79
-28.26
-30.91
-32.75
-32.64
-29.72
-23.79
-15.44
-5.97
3.08
10.42
15.38
18.03
18.98
19.08
19.00
19.09
19.29
19.28
18.72
17.42
15.35
12.71
9.81
6.97
4.58
2.93
2.22
2.54
3.80
5.76
8.14
10.59
12.78
14.40
15.20
15.12
14.23
12.80
11.17
9.67
8.47
7.57
6.85
6.14
5.36
4.54
3.73
3.01
2.39
1.87
1.41
0.97
0.46
-0.26
-1.39
-3.13
-5.61
-8.82
-12.48
-16.17
-19.38
-21.67
-22.86
-23.11
-22.97
-23.24
-24.64
-27.47
-31.25
-34.77
-36.40
-34.77
-29.35
-20.74
-10.43
-0.25
8.24
14.29
17.95
19.82
20.62
20.91
20.99
20.91
20.59
19.95
18.90
17.36
15.27
12.66
9.67
6.63
4.03
2.37
2.02
3.03
5.09
7.67
10.17
12.15
13.36
13.80
13.65
13.08
12.28
11.34
10.32
9.25
8.19
7.22
6.39
5.66
4.88
3.90
2.59
1.05
-0.43
-1.52
-2.02
-2.07
-2.16
-2.89
-4.67
-7.55
-11.12
-14.69
-17.59
-19.37
-19.90
-19.45
-18.58
-18.07
-18.73
-21.11
-25.21
-30.33
-35.07
-37.79
-37.17
-32.76
-25.19
-15.98
-6.88
0.71
6.18
9.73
11.94
13.43
14.51
15.10
14.99
14.03
12.22
9.73
6.81
3.75
0.80
-1.77
-3.71
-4.83
-4.97
-4.11
-2.31
0.26
3.35
6.57
9.42
11.45
12.33
12.06
10.96
9.59
8.51
8.06
8.29
8.92
9.50
9.61
9.03
7.85
6.43
5.22
4.54
4.35
4.25
3.60
1.91
-0.99
-4.73
-8.67
-12.12
-14.61
-16.05
-16.63
-16.80
-17.03
-17.86
-19.70
-22.61
-26.18
-29.42
-30.99
-29.74
-25.07
-17.39
-7.96
1.57
9.73
15.72
19.47
21.49
22.45
22.87
22.97
22.73
22.05
20.87
19.21
17.15
14.78
12.17
9.45
6.86
4.76
3.58
3.55
4.69
6.72
9.15
11.45
13.20
14.19
14.39
13.88
12.83
11.45
9.96
8.61
7.57
6.87
6.40
5.93
5.19
3.97
2.27
0.29
-1.63
-3.15
-4.07
-4.39
-4.39
-4.49
-5.10
-6.51
-8.78
-11.74
-15.01
-18.20
-20.89
-22.79
-23.82
-24.16
-24.28
-24.87
-26.59
-29.73
-33.91
-38.00
-40.38
-39.51
-34.59
-25.93
-15.03
-3.91
5.50
12.12
15.95
17.78
18.67
19.37
20.18
20.89
21.21
20.93
20.05
18.68
16.88
14.67
12.12
9.47
7.24
6.03
6.25
7.94
10.61
13.54
16.03
17.69
18.47
18.62
18.41
17.98
17.35
16.45
15.28
13.93
12.57
11.36
10.36
9.49
8.57
7.39
5.82
3.84
1.61
-0.58
-2.39
-3.58
-4.12
-4.26
-4.53
-5.46
-7.45
-10.52
-14.33
-18.21
-21.45
-23.52
-24.21
-23.77
-22.86
-22.41
-23.36
-26.34
-31.32
-37.41
-43.02
-46.27
-45.71
-40.86
-32.44
-22.06
-11.62
-2.63
4.24
9.11
12.52
15.01
16.82
17.91
18.10
17.33
15.71
13.51
10.98
8.30
5.51
2.73
0.13
-1.93
-3.05
-2.92
-1.46
1.10
4.28
7.49
10.16
11.93
12.69
12.57
11.89
11.03
10.26
9.68
9.24
8.71
7.91
6.75
5.38
4.07
3.20
2.97
3.26
3.62
3.37
1.92
-0.88
-4.68
-8.68
-12.00
-14.07
-14.80
-14.66
-14.39
-14.81
-16.50
-19.70
-24.08
-28.68
-32.04
-32.56
-29.10
-21.51
-10.92
0.56
10.58
17.48
20.87
21.57
20.98
20.35
20.14
20.09
19.59
18.26
16.12
13.61
11.13
8.76
6.28
3.38
0.01
-3.42
-6.11
-7.33
-6.63
-4.12
-0.43
3.59
7.14
9.70
11.25
12.09
12.73
13.57
14.73
15.98
16.86
16.92
15.90
13.95
11.47
8.97
6.94
5.64
5.11
5.24
5.75
6.31
6.53
6.02
4.49
1.86
-1.71
-5.69
-9.32
-11.88
-13.00
-12.80
-12.02
-11.73
-12.98
-16.42
-21.99
-28.87
-35.64
-40.64
-42.50
-40.63
-35.45
-28.30
-20.90
-14.59
-9.73
-5.72
-1.50
3.54
9.10
14.06
17.26
18.20
17.27
15.39
13.22
10.77
7.59
3.47
-0.96
-4.13
-4.21
-0.01
8.26
19.13
30.36
39.77
45.79
47.56
44.91
38.20
28.33
16.81
5.58
-3.43
-8.68
-9.55
-6.33
-0.10
7.72
15.73
22.72
27.70
29.84
28.49
23.14
13.72
0.82
-14.18
-29.12
-41.46
-48.91
-50.12
-45.27
-36.11
-25.60
-16.86
-12.36
-13.07
-18.55
-27.20
-36.90
-45.63
-51.82
-54.56
-53.85
-50.42
-45.48
-40.07
-34.52
-28.21
-19.87
-8.52
5.28
18.98
28.45
29.72
21.02
4.03
-16.40
-34.17
-44.40
-45.39
-38.81
-28.55
-18.86
-12.90
-12.41
-17.80
-28.27
-41.49
-53.23
-57.75
-49.53
-25.72
11.69
55.63
96.04
123.56
133.07
125.45
106.80
85.57
69.18
61.47
61.96
66.92
71.30
70.71
62.70
47.04
25.31
0.29
-24.84
-47.15
-64.44
-75.82
-82.04
-85.30
-88.61
-94.88
-105.77
-121.31
-139.93
-159.10
-176.21
-189.28
-197.46
-201.02
-200.98
-198.41
-193.77
-186.44
-174.80
-157.10
-132.30
-101.02
-65.27
-27.38
11.28
50.61
90.61
129.47
162.45
182.95
185.63
170.08
142.70
115.38
101.41
110.25
143.87
195.85
254.03
304.76
337.05
345.21
329.41
294.62
248.49
199.42
154.95
120.79
100.39
94.72
101.89
117.14
133.57
143.33
139.46
117.66
77.62
23.03
-39.32
-101.09
-154.03
-191.23
-207.87
-201.51
-172.54
-124.61
-64.91
-3.79
46.85
76.27
78.21
53.24
8.80
-43.36
-91.35
-127.03
-147.80
-155.66
-154.51
-147.56
-136.12
-120.06
-99.63
-76.72
-54.89
-38.02
-28.49
-25.90
-27.22
-28.32
-25.92
-18.99
-8.82
1.93
10.68
16.21
19.05
20.89
23.57
28.05
33.97
39.94
44.27
45.92
44.95
42.49
40.14
39.31
40.61
43.68
47.36
50.26
51.15
49.38
44.93
38.40
30.73
23.08
16.55
11.97
9.69
9.49
10.59
11.92
12.42
11.39
8.64
4.50
-0.48
-5.73
-10.90
-15.87
-20.64
-25.22
-29.52
-33.39
-36.69
-39.41
-41.68
-43.70
-45.58
-47.28
-48.66
-49.72
-50.77
-52.48
-55.58
-60.21
-65.51
-69.52
-69.76
-64.19
-52.25
-35.21
-15.89
2.47
17.25
27.27
32.75
34.80
34.64
33.14
30.71
27.59
24.07
20.64
17.76
15.73
14.47
13.60
12.73
11.65
10.52
9.80
10.05
11.59
14.32
17.68
20.91
23.23
24.22
23.96
22.92
21.78
21.09
20.98
21.15
21.04
20.06
17.96
14.92
11.43
8.12
5.49
3.70
2.64
2.02
1.39
0.42
-1.09
-3.21
-5.72
-8.21
-10.37
-12.29
-14.54
-18.00
-23.28
-30.25
-37.93
-44.86
-49.74
-51.80
-51.07
-48.12
-43.77
-38.94
-34.57
-31.43
-29.83
-29.31
-28.47
-25.51
-19.17
-9.52
1.80
12.19
19.42
22.65
22.62
21.20
20.22
20.38
21.08
20.79
18.00
12.24
4.41
-3.55
-9.50
-12.16
-11.62
-9.32
-7.30
-7.24
-9.70
-14.06
-18.96
-23.10
-26.02
-28.30
-31.20
-36.00
-43.30
-52.72
-63.19
-73.47
-82.77
-91.18
-99.51
-108.92
-120.39
-134.48
-151.30
-170.67
-192.29
-215.58
-239.45
-262.11
-281.19
-294.40
-300.27
-298.82
-291.60
-281.09
-269.79
-259.45
-250.65
-243.07
-235.95
-228.61
-220.60
-211.63
-201.37
-189.31
-174.88
-157.69
-137.85
-115.98
-93.12
-70.32
-48.32
-27.22
-6.49
14.76
37.33
61.57
87.17
113.31
139.08
163.90
187.83
211.51
235.82
261.54
289.20
319.13
351.53
386.23
422.15
456.90
486.88
508.19
518.03
515.87
503.64
484.74
462.47
438.78
414.14
388.44
362.24
337.29
315.82
299.11
286.17
273.57
256.60
231.13
195.40
150.61
100.59
50.27
4.22
-34.46
-64.58
-86.59
-101.97
-112.47
-119.50
-123.59
-124.22
-119.99
-108.85
-88.42
-56.33
-10.94
47.57
116.02
187.71
253.34
303.38
331.03
334.50
317.34
286.73
250.35
213.83
179.78
148.46
119.48
92.91
69.28
48.69
29.89
10.55
-11.67
-37.77
-66.69
-95.84
-122.34
-144.55
-162.65
-178.07
-192.40
-206.19
-218.60
-227.88
-232.40
-231.54
-226.01
-217.37
-207.43
-197.41
-187.81
-178.49
-169.14
-159.51
-149.61
-139.70
-130.16
-121.38
-113.70
-107.38
-102.48
-98.80
-95.96
-93.47
-90.94
-88.28
-85.65
-83.33
-81.50
-80.07
-78.66
-76.89
-74.53
-71.66
-68.57
-65.59
-62.87
-60.38
-58.10
-56.13
-54.67
-53.91
-53.67
-53.27
-51.63
-47.71
-40.96
-31.74
-21.19
-10.91
-2.31
3.87
7.70
9.87
11.23
12.33
13.31
13.94
13.92
13.05
11.37
9.01
6.10
2.73
-0.87
-4.16
-6.27
-6.24
-3.45
2.01
9.27
16.94
23.58
28.21
30.50
30.68
29.27
26.79
23.62
20.04
16.34
12.95
10.29
8.73
8.25
8.47
8.63
7.87
5.59
1.71
-3.20
-8.21
-12.41
-15.30
-16.96
-17.95
-18.94
-20.34
-22.19
-24.27
-26.36
-28.41
-30.45
-32.37
-33.75
-33.81
-31.79
-27.28
-20.57
-12.53
-4.39
2.80
8.48
12.60
15.44
17.31
18.32
18.37
17.22
14.76
11.10
6.63
2.04
-1.83
-4.24
-4.78
-3.50
-0.79
2.65
6.23
9.43
11.95
13.76
14.95
15.54
15.46
14.70
13.33
11.69
10.17
8.98
8.25
7.69
6.65
4.42
0.64
-4.56
-10.37
-15.89
-20.58
-23.76
-25.47
-26.54
-28.22
-31.41
-36.50
-42.81
-49.44
-55.97
-61.02
-64.05
-65.90
-68.57
-74.24
-84.67
-99.20
-115.55
-130.32
-137.31
-131.49
-111.52
-80.24
-42.84
-5.39
29.26
60.19
87.64
115.20
145.29
177.15
207.30
232.08
248.57
258.14
263.10
246.22
198.02
122.12
33.64
-51.22
-115.11
-161.20
-192.52
-210.35
-215.29
-207.53
-187.73
-159.34
-127.62
-97.06
-70.72
-46.95
-22.90
3.87
36.96
78.13
125.49
173.71
215.75
244.02
254.65
247.11
224.51
194.73
166.98
147.83
138.88
136.65
134.15
125.58
108.08
82.78
54.82
30.21
12.81
3.14
-0.60
-0.93
1.30
6.28
13.98
22.91
29.58
29.51
19.49
-0.45
-26.60
-52.78
-72.94
-83.26
-83.07
-74.47
-61.05
-46.50
-33.58
-23.70
-16.96
-12.59
-9.65
-7.51
-6.12
-5.68
-5.84
-5.25
-2.00
4.94
14.15
21.58
21.98
11.86
-8.21
-33.06
-54.91
-66.73
-65.07
-50.94
-28.38
-2.07
24.38
48.62
68.34
80.19
80.01
64.67
34.16
-7.43
-52.88
-94.47
-126.69
-147.53
-158.18
-161.18
-158.57
-151.12
-138.72
-121.37
-100.05
-76.82
-54.12
-34.02
-17.99
-6.91
-1.13
-0.21
-2.46
-4.79
-3.71
2.86
13.97
25.50
31.98
29.55
18.40
3.10
-9.50
-13.75
-7.83
5.78
22.29
37.64
50.46
62.06
74.51
88.24
100.81
107.64
104.26
88.78
63.31
33.15
4.70
-17.15
-30.87
-38.36
-43.27
-48.67
-55.37
-61.53
-63.96
-60.11
-49.67
-34.92
-19.87
-8.55
-3.62
-5.93
-14.58
-27.86
-43.93
-61.01
-77.23
-90.61
-99.61
-103.93
-104.74
-103.89
-102.39
-99.09
-90.76
-73.89
-47.06
-12.48
24.49
57.80
83.31
100.01
109.11
111.87
108.04
96.36
76.83
52.84
31.50
21.16
27.38
49.90
82.10
113.60
134.80
140.71
132.56
116.42
99.86
88.65
84.74
86.41
89.93
91.61
89.08
81.51
69.26
53.31
35.13
16.51
-0.77
-15.47
-27.70
-39.36
-54.11
-76.40
-109.83
-155.16
-208.99
-263.91
-310.14
-338.58
-343.69
-325.04
-286.79
-235.36
-176.70
-114.67
-51.22
12.04
72.26
125.36
167.56
197.56
217.61
232.58
247.55
265.07
284.00
300.38
309.77
309.86
301.66
288.83
275.76
265.50
258.50
252.79
245.18
232.79
214.20
189.68
160.65
128.80
95.44
60.91
25.10
-11.96
-49.67
-86.75
-121.79
-154.57
-186.81
-221.46
-260.62
-303.31
-344.82
-378.45
-398.49
-403.10
-394.60
-377.59
-355.86
-330.23
-298.53
-257.56
-205.20
-141.25
-67.32
14.13
99.69
184.14
259.93
318.04
350.39
352.63
326.43
279.33
223.06
170.67
132.72
113.97
112.09
118.82
123.96
120.33
107.26
90.65
79.07
78.24
87.22
98.77
103.80
96.76
78.68
55.92
35.76
21.85
12.35
1.76
-15.71
-42.77
-77.76
-115.93
-152.03
-182.40
-205.67
-222.02
-231.12
-230.95
-218.14
-189.79
-146.33
-93.20
-40.14
2.04
26.15
31.87
25.78
17.73
15.75
22.03
32.22
38.40
33.39
13.77
-19.54
-62.82
-111.23
-159.68
-202.52
-233.23
-245.56
-235.70
-204.50
-158.14
-106.18
-57.47
-16.22
19.61
56.49
101.03
155.60
216.41
275.14
322.95
354.66
370.69
376.08
377.33
379.13
382.65
386.38
388.28
387.80
386.29
385.80
387.32
389.64
389.59
383.39
368.24
343.33
310.13
271.40
230.05
188.05
146.01
103.41
59.31
13.28
-33.98
-80.61
-124.13
-162.23
-193.69
-218.76
-239.19
-257.29
-275.29
-294.38
-314.48
-334.64
-353.99
-372.41
-390.55
-408.98
-427.26
-443.46
-454.83
-459.29
-456.84
-449.92
-442.54
-438.69
-440.91
-450.18
-466.84
-491.64
-525.69
-568.97
-618.40
-666.96
-705.02
-723.70
-718.36
-690.47
-646.77
-596.04
-545.88
-500.11
-459.02
-420.99
-384.59
-349.72
-317.35
-288.43
-262.88
-239.49
-216.51
-192.69
-167.89
-143.11
-119.98
-99.82
-83.12
-69.30
-57.04
-44.91
-32.00
-18.26
-4.46
8.30
19.12
27.70
34.47
40.33
46.31
53.06
60.64
68.61
76.19
82.74
87.99
92.23
96.09
100.38
105.72
112.30
119.84
127.77
135.44
142.51
149.09
155.76
163.27
172.33
183.19
195.59
208.83
222.19
235.20
247.90
260.76
274.51
289.83
307.25
327.21
349.91
375.00
401.18
425.98
446.13
458.40
460.54
451.99
433.71
407.52
375.24
338.25
297.72
255.09
212.65
173.34
140.17
115.12
98.60
89.30
84.87
82.90
81.69
80.69
80.27
80.99
82.86
84.85
85.15
81.73
73.34
60.05
43.32
25.46
8.87
-4.66
-14.27
-19.98
-22.33
-22.08
-19.89
-16.34
-11.92
-7.19
-2.67
1.13
3.87
5.32
5.41
4.20
1.87
-1.34
-5.22
-9.64
-14.62
-20.03
-25.33
-29.29
-30.06
-25.79
-15.54
-0.21
17.31
32.89
42.66
44.66
39.68
30.96
22.60
17.73
17.13
19.16
20.82
19.49
14.28
6.50
-1.09
-5.66
-5.63
-1.30
5.44
12.10
16.63
18.21
17.31
15.34
13.97
14.65
18.35
25.42
35.34
46.38
55.49
58.87
53.44
38.73
17.93
-2.63
-15.84
-17.07
-6.52
10.51
25.89
32.46
26.99
11.29
-9.32
-28.73
-42.63
-49.47
-49.86
-45.08
-35.99
-22.83
-5.95
13.32
32.27
47.43
55.77
55.99
49.07
37.97
26.33
17.12
11.62
9.26
8.27
6.93
4.54
1.86
0.70
2.91
9.31
18.99
29.54
37.93
41.77
40.29
34.60
27.11
20.45
16.38
15.19
15.79
16.40
15.48
12.30
7.20
1.19
-4.51
-8.92
-11.48
-12.06
-10.90
-8.50
-5.69
-3.46
-2.81
-4.39
-8.23
-13.57
-19.09
-23.29
-25.09
-24.25
-21.50
-18.28
-16.23
-16.57
-19.63
-24.64
-29.93
-33.43
-33.38
-28.85
-20.18
-8.83
3.11
13.54
21.08
25.42
27.20
27.66
27.99
28.89
30.42
32.13
33.31
33.33
31.81
28.67
24.12
18.72
13.31
8.97
6.85
7.77
11.86
18.32
25.46
31.15
33.34
30.72
23.04
11.05
-3.80
-19.83
-35.46
-49.40
-60.82
-69.21
-74.38
-76.32
-75.01
-70.37
-62.25
-50.77
-36.62
-21.33
-7.08
3.89
10.06
11.15
8.16
2.88
-2.89
-8.01
-12.17
-15.74
-19.16
-22.55
-25.56
-27.53
-27.81
-26.03
-22.21
-16.70
-10.03
-2.83
4.18
10.31
15.04
18.10
19.63
20.09
20.10
20.12
20.30
20.52
20.56
20.27
19.66
18.84
17.84
16.50
14.59
11.98
8.87
5.80
3.53
2.66
3.29
4.90
6.58
7.36
6.72
4.79
2.28
0.09
-1.11
-1.22
-0.64
-0.03
0.13
-0.23
-0.71
-0.77
-0.04
1.33
2.73
3.27
2.21
-0.73
-5.26
-10.67
-16.07
-20.69
-24.02
-25.81
-26.14
-25.36
-24.09
-23.05
-22.77
-23.31
-24.05
-23.78
-21.20
-15.53
-6.98
3.14
12.79
20.02
23.69
23.91
21.90
19.31
17.52
17.07
17.58
18.09
17.66
15.82
12.64
8.63
4.41
0.50
-2.73
-5.03
-6.20
-6.09
-4.69
-2.25
0.79
3.96
6.92
9.62
12.27
15.12
18.21
21.21
23.35
23.85
22.25
18.79
14.48
10.79
9.06
10.00
13.31
17.85
22.01
24.31
23.81
20.36
14.50
7.24
-0.27
-7.01
-12.30
-15.99
-18.51
-20.82
-24.06
-29.11
-36.08
-44.04
-51.18
-55.40
-55.10
-49.93
-41.00
-30.44
-20.60
-13.17
-8.68
-6.59
-5.81
-5.39
-4.94
-4.67
-5.09
-6.60
-9.19
-12.41
-15.64
-18.39
-20.53
-22.22
-23.76
-25.20
-26.26
-26.33
-24.84
-21.59
-16.94
-11.78
-7.22
-4.20
-3.20
-4.13
-6.44
-9.40
-12.29
-14.64
-16.22
-17.07
-17.48
-17.82
-18.50
-19.84
-21.81
-24.11
-26.06
-26.80
-25.71
-22.98
-19.98
-19.05
-22.43
-30.85
-42.19
-51.15
-50.23
-32.04
7.40
66.33
136.35
204.28
256.02
280.86
274.38
238.95
182.14
114.37
46.68
-10.93
-51.11
-70.65
-71.74
-61.61
-50.34
-46.87
-55.05
-72.11
-90.29
-100.99
-99.12
-85.10
-63.88
-41.94
-24.18
-12.48
-6.14
-3.34
-2.45
-2.59
-3.61
-5.50
-7.95
-10.31
-11.76
-11.67
-10.00
-7.44
-5.29
-4.91
-7.13
-11.74
-17.38
-22.08
-24.20
-23.30
-20.49
-17.85
-17.23
-19.12
-22.17
-23.85
-21.74
-14.98
-4.77
6.13
14.72
19.23
19.76
17.96
16.02
15.53
16.85
19.28
21.61
22.83
22.45
20.49
17.26
13.15
8.56
3.98
0.03
-2.72
-3.91
-3.62
-2.36
-0.88
0.13
0.35
-0.11
-0.76
-1.02
-0.50
0.79
2.37
3.46
3.31
1.58
-1.59
-5.51
-9.32
-12.34
-14.23
-15.08
-15.22
-15.17
-15.42
-16.40
-18.29
-20.85
-23.32
-24.51
-23.24
-18.89
-11.79
-3.32
4.64
10.48
13.50
14.15
13.66
13.39
14.14
15.88
17.90
19.29
19.37
17.96
15.32
11.92
8.21
4.46
0.91
-2.16
-4.39
-5.42
-5.03
-3.41
-1.13
1.00
2.23
2.18
1.03
-0.57
-1.82
-2.21
-1.75
-1.05
-0.96
-2.22
-4.99
-8.88
-13.08
-16.70
-19.11
-20.08
-19.82
-18.90
-18.11
-18.26
-19.91
-23.02
-26.76
-29.62
-29.89
-26.38
-19.03
-9.07
1.47
10.51
16.81
20.31
22.01
23.26
25.00
27.33
29.52
30.57
29.77
27.16
23.47
19.69
16.56
14.21
12.21
10.02
7.37
4.55
2.23
1.01
0.94
1.45
1.56
0.42
-2.21
-5.81
-9.35
-11.82
-12.76
-12.46
-11.78
-11.67
-12.70
-14.75
-17.14
-19.08
-20.00
-19.92
-19.32
-18.87
-19.08
-20.18
-22.11
-24.73
-27.89
-31.33
-34.55
-36.70
-36.69
-33.63
-27.24
-18.24
-8.19
0.99
7.68
11.25
12.20
11.89
11.84
13.03
15.52
18.43
20.55
20.87
19.03
15.35
10.48
5.11
-0.18
-4.83
-8.08
-8.99
-6.81
-1.44
6.28
14.70
22.01
26.99
29.37
29.86
29.56
29.32
29.38
29.42
28.87
27.25
24.34
20.06
14.41
7.35
-0.88
-9.59
-17.57
-23.33
-25.75
-24.59
-20.85
-16.34
-13.14
-12.57
-14.67
-18.11
-20.55
-19.46
-12.92
-0.30
17.46
37.98
58.01
74.26
84.19
86.77
82.77
74.57
65.50
58.81
56.52
58.76
63.76
68.50
69.93
66.07
56.63
42.82
26.82
11.00
-2.51
-11.99
-16.30
-15.15
-9.54
-2.02
3.74
3.80
-4.62
-22.05
-46.31
-72.98
-96.69
-112.80
-118.74
-114.73
-103.32
-88.31
-73.37
-60.94
-51.95
-46.11
-42.52
-40.25
-38.55
-36.97
-35.32
-33.93
-33.59
-35.34
-39.85
-46.84
-54.91
-62.01
-66.30
-66.94
-64.34
-59.73
-54.35
-48.80
-42.74
-35.15
-24.93
-11.56
4.36
20.91
35.23
44.35
46.46
42.04
33.99
26.70
24.29
28.74
39.10
52.11
63.65
70.23
69.77
61.48
45.57
23.37
-2.15
-26.04
-42.21
-45.38
-33.47
-9.18
20.58
47.11
63.20
65.59
55.56
37.73
17.79
0.63
-10.64
-14.84
-12.21
-4.19
6.88
18.10
26.70
30.79
30.11
26.00
20.78
16.60
14.40
13.56
12.36
8.96
2.35
-7.07
-17.76
-27.65
-35.02
-38.96
-39.56
-37.61
-34.09
-29.76
-24.85
-19.08
-11.95
-3.06
7.50
19.02
30.27
39.76
46.18
48.75
47.41
42.86
36.38
29.51
23.62
19.64
17.76
17.55
18.12
18.57
18.28
17.18
15.64
14.28
13.71
14.31
16.12
18.90
22.26
25.75
28.96
31.57
33.36
34.30
34.42
33.84
32.68
30.95
28.59
25.49
21.58
16.98
12.02
7.28
3.53
1.47
1.51
3.48
6.38
8.54
7.92
2.89
-7.09
-20.96
-36.25
-49.85
-59.08
-62.68
-61.18
-56.57
-51.49
-48.29
-48.38
-51.90
-57.92
-64.87
-71.08
-75.11
-75.95
-73.06
-66.23
-55.62
-41.87
-26.31
-10.91
1.96
10.35
13.50
12.35
9.24
7.00
7.80
12.29
19.50
27.48
34.23
38.46
39.90
39.15
37.18
34.94
33.01
31.52
30.23
28.77
26.82
24.32
21.49
18.65
16.08
13.82
11.66
9.29
6.44
3.06
-0.68
-4.46
-7.89
-10.51
-11.85
-11.44
-8.97
-4.45
1.66
8.48
14.98
20.29
24.03
26.36
27.83
28.95
29.95
30.66
30.69
29.74
27.80
25.23
22.51
20.09
18.16
16.67
15.38
14.14
12.89
11.81
11.22
11.48
12.88
15.50
19.16
23.29
26.99
29.03
28.18
23.61
15.34
4.58
-6.55
-15.85
-21.89
-24.59
-25.05
-24.80
-24.90
-25.41
-25.53
-24.23
-20.87
-15.68
-9.72
-4.65
-2.32
-4.31
-11.36
-22.88
-36.65
-49.18
-56.73
-56.67
-48.70
-35.06
-19.84
-7.46
-0.97
-0.98
-5.51
-10.82
-12.83
-8.61
2.49
18.55
35.62
49.02
54.88
51.55
40.26
24.74
9.94
0.23
-2.19
2.00
9.60
16.29
18.32
13.96
3.91
-9.06
-21.24
-29.19
-30.86
-26.08
-16.44
-4.62
6.59
15.08
19.92
21.38
20.49
18.41
15.96
13.28
10.01
5.69
0.15
-6.19
-12.53
-18.11
-22.69
-26.77
-31.13
-36.19
-41.40
-45.09
-45.11
-40.01
-30.04
-17.25
-4.77
4.54
9.43
10.63
10.37
11.16
14.53
20.39
27.13
32.32
33.80
30.55
22.96
12.68
1.87
-7.55
-14.49
-18.79
-20.82
-20.95
-19.03
-14.41
-6.43
4.81
17.89
30.16
38.58
40.91
36.79
27.94
17.50
8.63
3.28
1.50
1.78
2.07
0.87
-2.12
-6.15
-9.98
-12.53
-13.18
-11.84
-8.74
-4.45
-0.01
3.03
2.77
-2.37
-12.95
-27.73
-43.72
-56.84
-63.21
-60.53
-48.97
-31.16
-11.33
6.22
18.55
24.95
26.73
26.23
25.54
25.51
25.71
25.01
22.55
18.42
13.60
9.43
6.89
6.10
6.50
7.22
7.74
8.10
8.78
10.35
13.08
16.72
20.60
23.76
25.22
24.28
20.62
14.53
6.97
-0.67
-6.86
-10.47
-11.19
-9.61
-6.95
-4.57
-3.42
-3.78
-5.36
-7.60
-10.07
-12.64
-15.34
-18.09
-20.57
-22.15
-22.29
-20.85
-18.31
-15.67
-14.05
-14.16
-15.92
-18.39
-19.99
-19.04
-14.37
-5.69
6.08
18.93
30.23
37.43
38.88
34.49
25.90
15.94
7.65
3.13
2.77
5.11
7.27
6.08
-0.76
-13.70
-30.82
-48.10
-60.53
-63.58
-55.01
-35.96
-10.91
13.62
31.29
38.27
34.50
23.42
10.25
-0.38
-6.27
-8.15
-8.61
-10.29
-14.28
-19.55
-23.77
-24.80
-22.03
-16.74
-11.24
-7.60
-6.63
-7.62
-9.18
-10.26
-10.78
-11.49
-13.18
-15.74
-17.93
-17.88
-14.10
-6.45
3.60
13.54
20.94
24.48
24.41
22.26
19.96
18.97
19.73
21.58
23.30
23.70
22.12
18.66
14.02
9.14
4.85
1.67
-0.28
-1.11
-1.08
-0.39
0.70
1.97
3.18
4.11
4.61
4.72
4.57
4.31
3.99
3.56
2.84
1.69
0.03
-2.12
-4.65
-7.44
-10.31
-13.07
-15.46
-17.18
-18.13
-18.46
-18.71
-19.67
-21.97
-25.78
-30.51
-34.91
-37.42
-36.85
-32.86
-26.12
-18.11
-10.48
-4.44
-0.36
2.22
4.22
6.45
9.24
12.34
15.11
16.92
17.43
16.70
15.11
13.07
10.92
8.85
7.02
5.60
4.86
5.04
6.18
8.00
9.95
11.37
11.85
11.34
10.28
9.29
8.84
9.02
9.41
9.36
8.30
6.04
2.89
-0.61
-3.88
-6.62
-8.82
-10.63
-12.29
-13.98
-15.86
-18.10
-20.83
-23.91
-26.86
-28.77
-28.55
-25.41
-19.27
-10.97
-2.07
5.77
11.37
14.48
15.73
16.22
16.87
18.02
19.34
20.13
19.79
18.20
15.76
13.12
10.89
9.29
8.19
7.25
6.24
5.14
4.22
3.83
4.18
5.21
6.57
7.72
8.15
7.61
6.21
4.35
2.58
1.26
0.40
-0.40
-1.65
-3.76
-6.68
-9.96
-13.00
-15.33
-16.84
-17.77
-18.52
-19.40
-20.59
-22.19
-24.30
-26.96
-29.97
-32.66
-33.97
-32.70
-28.20
-20.73
-11.54
-2.49
4.81
9.55
12.04
13.29
14.51
16.37
18.82
21.17
22.63
22.69
21.37
19.15
16.67
14.43
12.64
11.24
10.07
9.09
8.38
8.13
8.51
9.51
10.94
12.55
14.04
15.26
16.16
16.80
17.15
17.16
16.74
15.79
14.32
12.44
10.35
8.33
6.61
5.35
4.59
4.16
3.79
3.16
2.15
0.87
-0.36
-1.19
-1.55
-1.75
-2.40
-4.06
-6.87
-10.45
-14.07
-17.05
-19.12
-20.45
-21.40
-22.30
-23.32
-24.57
-26.26
-28.60
-31.58
-34.61
-36.42
-35.48
-30.74
-22.30
-11.61
-0.97
7.45
12.46
14.36
14.49
14.50
15.37
17.12
18.88
19.58
18.58
15.98
12.49
9.01
6.15
4.09
2.69
1.74
1.21
1.27
2.10
3.74
5.95
8.37
10.57
12.24
13.25
13.58
13.26
12.37
10.98
9.18
7.14
5.03
3.05
1.35
-0.00
-1.09
-2.02
-2.95
-3.98
-5.08
-6.14
-7.02
-7.58
-7.84
-7.93
-8.10
-8.61
-9.65
-11.19
-13.08
-15.00
-16.61
-17.69
-18.21
-18.43
-18.85
-20.06
-22.44
-25.90
-29.64
-32.34
-32.55
-29.30
-22.57
-13.36
-3.37
5.69
12.70
17.39
20.32
22.36
24.21
26.07
27.59
28.18
27.37
25.12
21.91
18.51
15.71
13.91
13.05
12.69
12.32
11.69
10.90
10.37
10.53
11.52
13.11
14.76
15.89
16.17
15.58
14.41
13.08
11.92
11.06
10.45
9.96
9.42
8.68
7.61
6.11
4.20
1.98
-0.31
-2.45
-4.36
-6.16
-8.06
-10.26
-12.81
-15.59
-18.39
-21.03
-23.36
-25.30
-26.87
-28.18
-29.51
-31.22
-33.55
-36.34
-38.89
-40.03
-38.60
-33.98
-26.48
-17.32
-8.20
-0.60
4.73
8.00
10.05
11.84
13.98
16.45
18.71
20.12
20.23
19.01
16.81
14.15
11.47
9.10
7.19
5.83
5.06
4.95
5.52
6.73
8.48
10.60
12.87
14.98
16.68
17.76
18.19
18.08
17.63
17.00
16.23
15.27
14.08
12.70
11.25
9.88
8.60
7.36
6.04
4.58
3.00
1.35
-0.38
-2.34
-4.77
-7.89
-11.76
-16.12
-20.52
-24.29
-26.90
-28.09
-28.14
-27.87
-28.38
-30.58
-34.51
-39.21
-42.78
-43.28
-39.54
-31.94
-22.29
-13.16
-6.74
-3.91
-3.90
-4.83
-4.70
-2.47
1.36
4.95
5.99
2.75
-5.09
-16.25
-28.27
-38.56
-45.17
-47.39
-46.02
-43.23
-42.43
-47.67
-62.69
-89.47
-126.80
-169.68
-210.25
-240.08
-253.03
-247.38
-225.99
-194.71
-159.66
-124.95
-91.78
-58.87
-23.81
15.44
59.56
107.25
155.18
198.17
230.30
246.33
243.47
222.55
187.99
146.56
105.37
70.00
43.51
26.50
17.97
16.27
19.81
27.12
36.72
46.96
56.15
62.93
66.64
67.57
66.66
64.95
63.06
60.96
58.21
54.40
49.70
44.85
40.89
38.55
37.87
38.11
38.11
36.93
34.20
30.36
26.44
23.59
22.63
23.71
26.26
29.23
31.52
32.31
31.39
29.09
26.07
22.88
19.72
16.32
12.07
6.43
-0.76
-9.10
-17.80
-26.04
-33.42
-40.07
-46.59
-53.61
-61.47
-70.03
-78.86
-87.46
-95.50
-102.85
-109.43
-115.10
-119.83
-123.94
-128.30
-134.14
-142.52
-153.34
-164.77
-173.22
-174.54
-165.63
-146.09
-118.57
-87.82
-58.54
-33.50
-12.71
5.73
23.77
41.76
58.09
70.31
76.97
78.86
78.90
80.57
86.11
95.50
106.77
117.35
125.40
130.36
132.62
132.56
129.81
123.21
111.43
93.83
71.07
45.01
18.20
-7.06
-29.34
-48.35
-64.63
-78.92
-91.41
-101.47
-107.72
-108.67
-103.40
-92.08
-76.01
-57.28
-38.24
-21.02
-7.14
2.73
8.74
11.70
12.74
12.86
12.55
11.83
10.42
8.27
5.98
4.84
6.63
13.02
25.03
42.68
64.88
89.63
114.48
136.97
155.21
168.27
176.19
179.80
180.20
178.28
174.55
169.21
162.45
154.54
145.95
137.04
127.94
118.48
108.35
97.39
85.84
74.32
63.65
54.47
47.03
41.11
36.22
31.85
27.65
23.52
19.46
15.44
11.34
6.94
2.12
-3.06
-8.41
-13.74
-19.19
-25.30
-32.83
-42.35
-53.78
-66.30
-78.46
-88.69
-95.69
-98.83
-98.13
-94.14
-87.72
-79.84
-71.48
-63.40
-56.07
-49.51
-43.39
-37.09
-30.03
-21.89
-12.73
-3.04
6.33
14.34
20.03
22.78
22.60
20.17
16.64
13.18
10.57
8.91
7.73
6.32
4.20
1.36
-1.80
-4.66
-6.82
-8.18
-8.93
-9.28
-9.33
-8.92
-7.78
-5.69
-2.68
0.92
4.57
7.74
10.02
11.26
11.51
10.93
9.69
7.94
5.84
3.54
1.26
-0.83
-2.64
-4.22
-5.74
-7.38
-9.26
-11.30
-13.32
-15.03
-16.24
-16.97
-17.51
-18.35
-19.90
-22.29
-25.15
-27.65
-28.73
-27.59
-23.98
-18.48
-12.27
-6.73
-2.91
-1.19
-1.22
-2.21
-3.35
-4.14
-4.42
-4.35
-4.10
-3.89
-3.91
-4.49
-5.99
-8.58
-11.93
-15.16
-17.05
-16.58
-13.57
-8.83
-3.94
-0.54
0.45
-0.82
-3.26
-5.46
-6.33
-5.59
-3.76
-1.81
-0.61
-0.53
-1.29
-2.29
-3.00
-3.34
-3.73
-4.82
-7.05
-10.25
-13.77
-16.75
-18.64
-19.48
-19.88
-20.58
-22.03
-24.18
-26.64
-28.96
-30.87
-32.31
-33.19
-33.20
-31.84
-28.62
-23.42
-16.66
-9.29
-2.37
3.27
7.35
10.18
12.27
14.12
15.84
17.17
17.72
17.24
15.88
14.11
12.50
11.44
10.95
10.75
10.50
10.00
9.37
8.89
8.83
9.30
10.14
11.06
11.77
12.07
11.96
11.51
10.82
9.98
9.00
7.88
6.62
5.23
3.76
2.28
0.86
-0.45
-1.67
-2.92
-4.36
-6.13
-8.22
-10.53
-12.85
-14.97
-16.75
-18.14
-19.15
-19.91
-20.60
-21.49
-22.88
-24.99
-27.73
-30.58
-32.70
-33.14
-31.29
-27.13
-21.34
-14.97
-9.08
-4.32
-0.78
1.87
4.15
6.35
8.50
10.28
11.34
11.37
10.39
8.63
6.47
4.30
2.39
0.90
-0.13
-0.63
-0.51
0.32
1.88
4.06
6.63
9.22
11.47
13.10
14.00
14.22
13.96
13.52
13.11
12.86
12.69
12.40
11.65
10.11
7.56
4.08
0.03
-3.96
-7.25
-9.45
-10.60
-11.06
-11.38
-11.92
-12.79
-13.87
-15.05
-16.40
-18.10
-20.22
-22.44
-23.99
-23.87
-21.38
-16.49
-9.98
-3.13
2.79
7.04
9.60
11.03
12.07
13.24
14.60
15.85
16.50
16.21
14.91
12.81
10.33
7.91
5.91
4.57
3.95
3.97
4.38
4.87
5.18
5.22
5.12
5.17
5.66
6.73
8.25
9.82
11.01
11.39
10.79
9.27
7.10
4.66
2.31
0.33
-1.23
-2.51
-3.79
-5.32
-7.19
-9.28
-11.32
-13.08
-14.45
-15.56
-16.65
-17.95
-19.52
-21.32
-23.23
-25.15
-26.92
-28.26
-28.64
-27.40
-24.02
-18.49
-11.40
-3.87
2.89
7.97
11.17
12.88
13.86
14.79
15.97
17.26
18.27
18.64
18.22
17.15
15.68
14.04
12.35
10.68
9.13
7.89
7.28
7.50
8.56
10.16
11.77
12.90
13.25
12.91
12.18
11.42
10.83
10.41
9.98
9.29
8.15
6.55
4.58
2.45
0.39
-1.45
-3.00
-4.36
-5.69
-7.13
-8.74
-10.47
-12.18
-13.75
-15.13
-16.35
-17.48
-18.66
-20.04
-21.84
-24.26
-27.34
-30.74
-33.70
-35.22
-34.44
-31.01
-25.34
-18.52
-11.84
-6.34
-2.50
-0.07
1.57
3.06
4.72
6.46
7.85
8.49
8.12
6.84
5.01
3.05
1.35
0.10
-0.64
-0.87
-0.62
0.11
1.31
2.95
4.94
7.17
9.43
11.48
13.07
13.98
14.13
13.60
12.63
11.51
10.45
9.44
8.32
6.81
4.69
1.98
-1.08
-4.13
-6.81
-8.93
-10.49
-11.62
-12.53
-13.38
-14.35
-15.58
-17.17
-19.09
-21.02
-22.45
-22.66
-21.06
-17.46
-12.17
-6.00
-0.01
4.92
8.38
10.47
11.77
12.87
14.16
15.58
16.79
17.30
16.86
15.50
13.55
11.46
9.61
8.18
7.18
6.58
6.32
6.41
6.84
7.60
8.61
9.70
10.71
11.52
12.03
12.24
12.18
11.94
11.55
10.98
10.10
8.77
6.89
4.53
1.92
-0.62
-2.80
-4.49
-5.75
-6.82
-7.95
-9.31
-10.92
-12.66
-14.34
-15.82
-17.09
-18.29
-19.70
-21.57
-23.97
-26.63
-28.88
-29.80
-28.53
-24.65
-18.43
-10.89
-3.39
2.79
7.00
9.38
10.71
11.87
13.43
15.35
17.05
17.82
17.22
15.30
12.55
9.63
7.07
5.13
3.83
3.10
2.94
3.37
4.40
5.90
7.62
9.22
10.45
11.21
11.55
11.59
11.48
11.19
10.60
9.52
7.74
5.24
2.20
-1.00
-3.93
-6.25
-7.92
-9.18
-10.40
-11.84
-13.52
-15.20
-16.56
-17.39
-17.70
-17.71
-17.73
-18.09
-19.07
-20.84
-23.39
-26.46
-29.37
-31.18
-30.92
-27.98
-22.44
-15.12
-7.30
-0.26
5.23
9.07
11.73
13.92
16.15
18.49
20.57
21.87
21.95
20.72
18.45
15.64
12.81
10.33
8.42
7.16
6.57
6.70
7.53
8.91
10.55
12.09
13.22
13.83
14.03
14.05
14.07
14.06
13.82
13.06
11.65
9.69
7.48
5.39
3.62
2.16
0.78
-0.80
-2.74
-5.02
-7.48
-9.88
-12.04
-13.94
-15.61
-17.14
-18.62
-20.14
-21.77
-23.62
-25.72
-27.91
-29.78
-30.63
-29.70
-26.49
-21.01
-13.93
-6.39
0.40
5.64
9.10
11.14
12.41
13.47
14.58
15.65
16.38
16.51
15.94
14.74
13.13
11.34
9.59
8.08
6.96
6.33
6.26
6.77
7.78
9.16
10.68
12.08
13.14
13.74
13.93
13.87
13.75
13.68
13.62
13.37
12.73
11.54
9.81
7.68
5.37
3.07
0.89
-1.13
-3.01
-4.81
-6.56
-8.33
-10.08
-11.78
-13.36
-14.76
-16.04
-17.41
-19.27
-21.98
-25.66
-29.89
-33.69
-35.78
-35.05
-31.08
-24.39
-16.35
-8.60
-2.44
1.65
4.00
5.50
6.99
8.90
11.06
12.92
13.88
13.60
12.10
9.73
6.98
4.32
2.10
0.51
-0.38
-0.58
-0.17
0.74
1.99
3.41
4.80
6.01
6.94
7.59
8.00
8.21
8.21
7.91
7.26
6.23
4.97
3.70
2.58
1.64
0.70
-0.48
-2.03
-3.85
-5.66
-7.12
-8.04
-8.50
-8.80
-9.32
-10.41
-12.28
-14.95
-18.28
-21.87
-25.10
-27.16
-27.25
-24.89
-20.13
-13.62
-6.38
0.46
6.17
10.47
13.59
15.99
18.09
20.04
21.74
22.87
23.14
22.38
20.69
18.31
15.66
13.10
10.95
9.38
8.47
8.20
8.49
9.25
10.35
11.59
12.77
13.67
14.13
14.12
13.74
13.17
12.64
12.29
12.11
11.87
11.27
9.99
7.95
5.28
2.34
-0.48
-3.00
-5.20
-7.29
-9.44
-11.71
-13.98
-16.06
-17.86
-19.43
-20.95
-22.65
-24.75
-27.34
-30.44
-33.87
-37.21
-39.76
-40.66
-39.17
-35.04
-28.70
-21.19
-13.82
-7.64
-3.15
-0.20
1.72
3.14
4.29
5.12
5.42
5.08
4.11
2.66
0.87
-1.15
-3.29
-5.34
-6.93
-7.62
-7.13
-5.48
-3.01
-0.27
2.23
4.26
5.92
7.59
9.72
12.78
17.17
23.08
30.48
38.98
47.86
56.18
63.05
67.88
70.50
71.07
69.92
67.29
63.31
57.97
51.42
44.04
36.36
28.90
21.90
15.23
8.54
1.56
-5.84
-13.20
-19.69
-24.54
-27.53
-29.48
-32.23
-38.09
-48.79
-64.93
-84.74
-103.99
-116.60
-116.30
-99.01
-65.13
-20.50
25.34
61.42
80.31
80.41
65.92
43.96
20.67
-1.40
-23.62
-48.75
-80.02
-117.54
-158.46
-197.94
-230.73
-252.68
-261.77
-258.42
-244.39
-223.83
-199.47
-171.99
-139.75
-99.70
-49.27
11.70
74.42
136.38
186.82
216.34
219.61
198.32
161.76
124.75
102.69
105.59
134.69
179.85
225.64
257.28
266.46
253.79
227.17
197.21
172.18
155.78
145.28
135.53
121.48
100.39
72.13
38.28
0.74
-39.28
-80.59
-122.72
-164.35
-203.41
-237.48
-264.62
-283.87
-295.44
-300.66
-300.72
-296.85
-289.51
-278.21
-262.23
-241.38
-216.65
-190.48
-166.43
-147.65
-136.13
-131.47
-130.11
-126.94
-117.31
-98.76
-71.84
-39.92
-6.96
23.57
49.64
72.56
95.06
119.90
148.99
183.27
222.19
265.56
311.82
357.28
398.46
430.79
449.12
449.30
430.17
393.39
345.79
295.34
248.22
210.44
185.05
171.95
169.05
173.96
183.36
196.82
213.44
212.84
181.01
115.58
27.77
-64.32
-134.63
-181.51
-208.24
-218.57
-215.43
-201.09
-176.04
-142.58
-105.68
-71.77
-47.89
-35.82
-33.95
-38.83
-44.48
-45.90
-41.33
-32.36
-22.38
-15.84
-13.98
-16.57
-22.96
-31.21
-39.35
-46.35
-52.05
-56.72
-61.09
-64.41
-65.76
-64.78
-61.18
-55.12
-47.47
-39.40
-31.83
-25.48
-19.97
-14.75
-9.62
-4.63
-0.04
3.67
6.00
6.52
4.69
0.24
-6.93
-16.50
-27.44
-37.91
-45.70
-48.86
-46.45
-38.75
-27.04
-13.03
1.76
16.27
29.81
41.78
51.44
58.04
61.00
60.29
56.38
50.15
42.44
33.81
24.47
14.50
4.07
-6.24
-15.57
-22.95
-27.73
-29.80
-29.72
-28.46
-27.04
-26.10
-25.73
-25.59
-25.19
-24.28
-23.07
-22.14
-22.20
-23.64
-26.34
-29.60
-32.48
-34.20
-34.55
-33.93
-33.25
-33.61
-35.82
-40.11
-45.76
-51.04
-53.52
-50.73
-41.29
-25.70
-6.77
11.10
23.20
26.21
19.33
4.37
-15.07
-35.22
-53.35
-68.53
-81.32
-92.89
-104.14
-115.06
-124.70
-131.55
-134.19
-131.55
-122.95
-107.93
-86.09
-57.42
-22.83
15.43
53.76
87.89
114.16
130.61
137.48
136.93
131.94
125.10
117.81
110.10
101.21
90.48
78.02
64.93
52.91
43.64
38.02
35.91
36.26
37.69
39.03
39.72
39.78
39.55
39.37
39.40
39.61
39.90
40.25
40.68
41.26
42.04
43.06
44.36
45.85
47.28
48.21
48.05
46.18
42.14
35.70
26.98
16.45
4.89
-6.62
-16.96
-25.20
-30.93
-34.36
-36.21
-37.33
-38.23
-38.87
-38.61
-36.64
-32.40
-26.04
-18.35
-10.60
-3.97
0.83
3.74
5.28
6.23
7.29
8.73
10.36
11.64
11.88
10.59
7.54
2.88
-3.07
-10.04
-17.94
-26.86
-36.77
-47.36
-57.86
-67.17
-74.05
-77.47
-76.71
-71.46
-61.81
-48.23
-31.68
-13.58
4.25
19.90
31.76
39.00
41.61
40.32
36.32
30.84
24.84
18.84
12.88
6.85
0.83
-4.69
-9.02
-11.92
-14.29
-18.35
-27.02
-42.61
-65.43
-93.17
-121.43
-145.18
-160.54
-166.01
-162.63
-153.09
-140.52
-127.26
-114.30
-101.33
-87.30
-71.20
-52.78
-32.85
-13.14
4.32
18.02
27.57
33.86
38.53
43.40
49.62
57.37
65.81
73.07
76.40
72.38
57.88
31.54
-4.50
-43.89
-77.24
-95.24
-92.44
-69.65
-33.75
5.54
39.76
64.60
80.07
88.29
90.74
86.95
75.45
56.07
31.58
7.44
-10.04
-16.04
-8.93
9.60
35.11
61.94
84.65
99.37
104.75
102.25
95.34
87.93
82.68
80.00
78.50
76.42
73.19
69.94
68.74
71.16
76.91
83.95
89.51
91.57
89.86
85.90
82.12
80.59
82.02
85.59
89.72
93.04
95.29
97.14
99.46
102.41
105.19
106.70
106.65
106.20
107.35
111.63
118.59
125.58
128.83
125.27
114.11
97.04
77.24
57.68
39.93
23.83
8.14
-8.59
-27.37
-48.46
-71.40
-95.26
-118.84
-141.10
-161.57
-180.72
-200.09
-222.08
-249.54
-284.98
-329.27
-380.40
-432.59
-476.67
-502.05
-500.19
-468.15
-411.05
-341.26
-274.80
-225.71
-201.09
-198.80
-208.88
-217.92
-214.11
-190.96
-148.32
-91.41
-28.74
30.02
75.26
98.46
93.19
56.82
-7.68
-91.06
-179.14
-256.24
-309.40
-332.03
-325.13
-295.91
-254.55
-210.51
-170.12
-135.58
-105.90
-78.45
-50.71
-21.13
10.29
42.02
71.58
96.06
113.20
121.66
121.12
112.19
96.78
78.14
60.78
49.78
49.10
60.36
81.55
107.07
129.43
142.36
142.70
131.38
113.01
93.44
78.98
73.97
79.70
94.94
118.22
148.11
183.46
222.56
261.16
294.64
317.96
327.00
321.07
305.12
286.88
273.46
267.96
266.48
263.43
253.01
231.37
199.00
162.37
129.74
107.89
99.59
101.12
109.05
120.23
132.00
128.22
98.28
40.17
-37.66
-106.91
-160.82
-199.34
-223.44
-238.12
-244.52
-241.06
-226.85
-202.83
-171.95
-140.33
-110.59
-82.87
-56.08
-28.10
3.97
41.03
81.02
119.02
147.38
162.21
163.67
154.99
141.46
128.72
120.19
116.26
114.91
112.18
106.19
96.80
84.52
70.04
54.01
36.83
19.09
1.82
-14.04
-26.73
-34.70
-37.50
-35.77
-30.89
-24.43
-17.57
-10.89
-4.65
1.37
7.55
13.92
20.15
25.79
30.54
34.52
38.10
41.70
45.53
49.86
54.54
59.07
62.98
66.14
68.85
71.54
74.37
76.88
78.61
78.67
76.09
70.50
62.62
54.19
47.48
44.63
47.17
56.37
71.91
91.29
110.55
125.32
132.29
130.18
120.11
100.54
73.86
45.01
19.13
-0.30
-12.36
-17.86
-18.25
-15.17
-10.60
-6.56
-5.04
-7.89
-15.68
-27.46
-41.39
-55.85
-70.58
-87.21
-108.33
-133.39
-162.19
-193.35
-224.29
-251.88
-273.73
-289.18
-299.54
-307.37
-316.03
-329.32
-349.61
-376.36
-405.42
-429.36
-439.24
-427.35
-389.72
-328.11
-250.39
-168.00
-92.58
-32.54
9.00
34.22
48.66
58.39
67.52
77.07
86.09
93.45
99.24
104.86
111.84
120.27
128.23
132.72
131.43
124.47
114.47
105.22
99.70
98.84
101.43
105.33
108.88
111.61
114.16
117.47
121.90
126.82
130.97
133.19
133.19
131.86
130.92
132.14
136.37
143.24
151.23
158.19
161.67
159.24
148.80
129.09
100.61
66.19
30.77
-0.06
-22.07
-33.99
-37.51
-35.93
-32.17
-27.66
-22.46
-16.46
-10.33
-5.55
-3.22
-2.82
-1.89
2.88
13.99
31.66
53.48
75.19
92.05
100.05
96.35
79.68
50.29
10.33
-36.18
-84.05
-128.36
-166.05
-196.60
-221.50
-242.35
-259.22
-270.07
-271.80
-262.38
-242.39
-215.25
-185.77
-158.30
-135.20
-116.62
-101.35
-87.74
-74.40
-60.07
-43.65
-24.27
-1.83
22.66
47.19
69.41
87.44
100.38
108.48
112.77
114.73
115.70
116.48
117.05
116.53
113.58
106.97
96.28
82.08
66.06
50.01
35.10
21.34
7.42
-9.31
-32.49
-65.64
-110.48
-164.64
-221.58
-271.59
-304.67
-313.93
-298.24
-262.29
-214.52
-163.48
-114.11
-67.89
-23.82
19.97
65.11
112.73
163.47
216.99
271.16
322.47
364.91
391.76
398.22
383.56
351.80
310.15
266.51
220.00
171.88
124.49
81.33
45.81
19.70
2.63
-7.43
-13.19
-17.22
-20.11
-21.86
-22.14
-20.96
-18.81
-16.63
-15.56
-16.62
-20.87
-27.96
-36.93
-46.55
-56.04
-65.47
-75.51
-86.70
-98.63
-110.17
-118.82
-121.75
-116.95
-104.29
-85.55
-63.79
-42.40
-24.51
-11.97
-7.19
-11.51
-24.49
-43.89
-66.12
-87.40
-104.54
-111.13
-104.13
-84.92
-58.28
-29.61
-2.50
21.73
42.74
60.65
75.60
86.46
92.45
94.16
93.53
92.87
93.93
96.75
100.57
104.25
105.02
101.06
92.47
81.46
70.87
62.90
57.22
52.51
46.90
36.62
19.37
-4.31
-31.11
-57.02
-78.76
-96.27
-110.96
-125.24
-144.36
-172.69
-212.13
-262.13
-321.42
-379.73
-430.20
-466.75
-469.77
-431.14
-357.71
-268.52
-184.12
-117.35
-70.85
-41.62
-23.91
-13.14
-8.23
-9.56
-16.22
-25.00
-31.78
-33.12
-28.42
-18.38
-6.49
2.61
5.91
3.25
-3.02
-9.72
-14.36
-16.67
-17.56
-18.52
-21.70
-28.19
-37.25
-46.61
-53.65
-56.49
-54.82
-49.38
-41.43
-32.52
-23.60
-14.61
-4.60
7.49
22.31
39.66
58.79
78.68
98.42
117.45
135.84
154.21
173.46
194.53
218.08
244.13
271.64
298.52
321.83
338.45
346.06
343.84
332.70
314.75
292.48
267.89
242.25
216.15
189.98
164.19
139.17
114.93
90.99
66.67
41.74
17.13
-4.94
-21.40
-29.29
-26.68
-13.11
10.35
41.46
77.14
113.62
146.77
172.59
187.99
191.70
184.60
169.50
150.13
130.14
112.29
98.11
88.16
82.32
79.97
80.18
81.77
83.45
84.08
82.82
79.26
73.36
65.44
56.15
46.35
37.16
29.63
24.66
22.58
23.15
25.57
28.67
31.09
31.47
28.48
20.92
7.82
-11.32
-36.35
-66.39
-100.01
-135.69
-172.27
-209.16
-246.14
-283.00
-318.94
-352.51
-381.75
-404.73
-419.93
-426.44
-423.71
-411.40
-389.30
-357.73
-317.87
-271.95
-222.87
-173.45
-125.76
-80.81
-38.82
0.21
35.97
67.64
94.13
114.43
127.98
134.75
134.99
128.96
116.91
99.43
78.22
56.52
38.86
29.84
32.32
45.90
66.60
87.98
103.33
107.87
99.89
80.50
52.22
17.53
-21.87
-64.90
-110.44
-156.88
-202.29
-244.91
-283.57
-317.59
-346.22
-368.08
-381.03
-382.80
-372.02
-349.08
-316.41
-277.80
-237.15
-197.22
-159.00
-122.07
-85.49
-48.98
-13.39
19.40
47.44
69.57
85.86
97.45
105.71
111.67
115.83
118.67
121.23
125.43
133.73
148.23
169.84
198.17
232.10
270.45
312.14
355.27
396.16
428.86
446.38
443.10
417.28
372.33
315.84
256.88
202.95
158.10
122.86
95.62
74.33
57.54
44.40
34.07
25.34
16.84
7.61
-2.37
-12.23
-20.61
-26.51
-29.78
-31.10
-31.54
-31.92
-32.47
-32.81
-32.45
-31.21
-29.54
-28.32
-28.70
-31.69
-37.83
-46.77
-56.73
-63.96
-62.95
-47.93
-15.41
33.35
91.23
146.67
187.26
203.77
192.67
156.07
99.87
31.55
-40.86
-108.76
-162.71
-193.42
-194.11
-163.34
-106.54
-35.05
37.10
97.23
137.22
154.58
151.62
133.31
104.97
70.47
31.46
-12.06
-60.25
-111.73
-162.69
-207.47
-240.73
-259.60
-264.84
-260.19
-250.17
-237.82
-223.50
-205.75
-183.22
-156.62
-129.21
-105.69
-90.12
-84.15
-86.52
-93.86
-102.29
-108.68
-111.32
-109.56
-103.12
-91.58
-74.27
-50.71
-21.02
13.74
51.59
89.80
125.27
154.99
176.44
188.16
190.05
183.56
171.46
157.16
144.08
134.90
131.10
132.73
138.45
145.68
151.12
151.56
144.84
130.63
110.47
87.08
63.19
40.43
19.05
-1.73
-22.66
-43.75
-64.05
-82.20
-97.26
-109.13
-118.43
-125.78
-131.09
-133.40
-131.34
-124.01
-111.60
-95.56
-78.03
-61.15
-46.22
-33.53
-22.61
-12.72
-3.42
5.25
12.75
18.44
21.88
23.08
22.59
21.21
19.81
18.89
18.54
18.45
18.18
17.50
16.47
15.49
14.95
14.99
15.42
15.74
15.35
13.85
11.14
7.44
3.16
-1.28
-5.57
-9.59
-13.40
-17.27
-21.55
-26.58
-32.50
-39.05
-45.45
-50.54
-53.02
-51.87
-46.70
-37.87
-26.38
-13.54
-0.67
11.20
21.38
29.53
35.56
39.63
42.04
43.23
43.58
43.46
43.12
42.67
42.10
41.30
40.12
38.41
36.17
33.61
31.15
29.32
28.43
28.45
28.93
29.18
28.62
27.01
24.60
21.91
19.51
17.71
16.45
15.34
13.88
11.59
8.29
3.98
-1.04
-6.38
-11.60
-16.36
-20.53
-24.25
-27.96
-32.18
-37.33
-43.36
-49.63
-54.93
-57.80
-56.99
-51.92
-42.91
-31.05
-17.82
-4.67
7.38
17.79
26.41
33.29
38.49
42.02
43.96
44.42
43.69
42.13
40.07
37.72
35.17
32.47
29.70
27.08
24.90
23.49
23.08
23.69
25.12
26.96
28.68
29.81
30.03
29.30
27.80
25.90
23.98
22.28
20.84
19.49
17.98
16.06
13.62
10.69
7.42
4.03
0.75
-2.23
-4.83
-7.13
-9.32
-11.65
-14.26
-17.20
-20.34
-23.53
-26.62
-29.51
-32.14
-34.50
-36.68
-38.92
-41.61
-45.15
-49.62
-54.53
-58.74
-60.74
-59.18
-53.45
-43.99
-32.03
-19.21
-6.92
3.96
13.10
20.50
26.24
30.33
32.78
33.73
33.50
32.54
31.28
30.00
28.78
27.54
26.15
24.61
23.05
21.74
20.99
21.01
21.79
23.11
24.59
25.83
26.60
26.83
26.65
26.22
25.68
25.04
24.24
23.13
21.62
19.69
17.44
15.05
12.68
10.43
8.27
6.07
3.65
0.85
-2.37
-5.95
-9.74
-13.50
-17.01
-20.13
-22.80
-25.16
-27.54
-30.36
-33.95
-38.35
-43.11
-47.30
-49.73
-49.34
-45.55
-38.48
-28.91
-18.01
-7.02
3.04
11.55
18.26
23.19
26.48
28.35
28.99
28.63
27.46
25.73
23.65
21.40
19.11
16.83
14.68
12.81
11.42
10.77
10.95
11.85
13.12
14.32
15.04
15.11
14.61
13.73
12.71
11.62
10.44
9.06
7.42
5.51
3.43
1.29
-0.82
-2.78
-4.50
-5.89
-6.92
-7.70
-8.47
-9.59
-11.36
-13.91
-17.02
-20.28
-23.21
-25.52
-27.28
-28.92
-31.03
-34.04
-37.93
-42.18
-45.80
-47.73
-47.13
-43.70
-37.67
-29.73
-20.78
-11.71
-3.29
3.96
9.79
14.16
17.23
19.25
20.47
21.05
21.08
20.59
19.65
18.33
16.73
14.94
13.08
11.27
9.69
8.52
7.88
7.77
8.00
8.33
8.58
8.78
9.12
9.81
10.95
12.36
13.68
14.50
14.49
13.49
11.46
8.44
4.65
0.52
-3.40
-6.65
-9.10
-11.07
-13.19
-16.03
-19.74
-24.06
-28.48
-32.59
-36.30
-39.73
-42.89
-45.34
-46.25
-44.71
-40.22
-33.06
-24.20
-14.97
-6.52
0.44
5.76
9.70
12.69
15.04
16.85
18.05
18.46
18.00
16.78
15.08
13.25
11.61
10.31
9.34
8.55
7.81
7.08
6.47
6.16
6.29
6.90
7.87
8.91
9.70
9.93
9.41
8.14
6.24
3.91
1.37
-1.21
-3.67
-5.89
-7.82
-9.47
-11.00
-12.69
-14.91
-17.89
-21.54
-25.38
-28.56
-30.23
-29.73
-26.90
-22.06
-15.86
-9.01
-2.16
4.17
9.61
13.85
16.67
18.07
18.24
17.54
16.45
15.26
14.12
12.99
11.76
10.36
8.81
7.17
5.58
4.15
3.01
2.26
1.98
2.20
2.81
3.57
4.16
4.24
3.57
2.09
-0.10
-2.75
-5.56
-8.24
-10.60
-12.57
-14.17
-15.50
-16.74
-18.13
-19.97
-22.49
-25.74
-29.47
-33.01
-35.47
-35.92
-33.78
-28.99
-22.07
-13.89
-5.43
2.53
9.48
15.19
19.58
22.61
24.28
24.65
23.94
22.44
20.56
18.67
17.03
15.68
14.51
13.36
12.11
10.84
9.77
9.20
9.26
9.81
10.43
10.61
9.99
8.52
6.52
4.44
2.65
1.24
-0.03
-1.55
-3.66
-6.49
-9.89
-13.57
-17.22
-20.63
-23.75
-26.64
-29.33
-31.84
-34.13
-36.19
-38.09
-39.94
-41.82
-43.66
-45.11
-45.57
-44.30
-40.69
-34.48
-25.97
-16.02
-5.76
3.68
11.52
17.44
21.51
24.00
25.29
25.67
25.37
24.51
23.05
20.76
17.40
12.91
7.70
2.73
-0.74
-1.57
0.78
5.99
12.94
20.01
25.60
28.54
28.50
26.05
22.47
19.31
17.86
18.63
21.24
24.55
27.10
27.56
25.22
20.18
13.35
6.25
0.56
-2.41
-2.14
0.92
5.49
9.97
12.99
13.77
12.09
8.11
2.19
-5.05
-12.71
-19.51
-24.10
-25.65
-24.20
-20.85
-17.26
-14.85
-14.15
-14.56
-14.73
-13.36
-9.82
-4.37
2.08
8.57
14.40
19.34
23.38
26.42
28.19
28.31
26.53
23.02
18.44
13.78
10.03
7.88
7.47
8.43
10.10
11.84
13.28
14.39
15.39
16.56
18.04
19.73
21.34
22.56
23.21
23.30
23.09
22.88
22.85
22.98
22.99
22.53
21.28
19.18
16.51
13.73
11.46
10.17
10.09
11.06
12.65
14.28
15.52
16.25
16.70
17.18
17.83
18.33
17.92
15.61
10.46
1.96
-9.82
-24.00
-38.95
-52.43
-62.04
-65.94
-63.57
-56.03
-45.98
-36.75
-31.26
-31.01
-35.81
-44.08
-53.78
-63.13
-71.07
-77.16
-81.20
-82.98
-82.15
-78.52
-72.30
-64.28
-55.70
-47.82
-41.43
-36.43
-31.95
-26.61
-19.19
-9.19
2.85
15.53
27.10
36.31
42.81
47.25
50.80
54.46
58.49
62.36
65.01
65.45
63.24
58.61
52.26
45.11
37.92
31.26
25.52
21.03
18.09
16.93
17.57
19.78
22.99
26.38
29.02
30.09
29.09
25.95
21.04
15.02
8.60
2.34
-3.47
-8.83
-13.91
-18.92
-24.03
-29.21
-34.31
-39.10
-43.34
-46.88
-49.68
-51.68
-52.80
-52.94
-51.97
-49.88
-46.81
-43.13
-39.29
-35.80
-33.04
-31.26
-30.56
-30.93
-32.24
-34.20
-36.41
-38.41
-39.86
-40.72
-41.25
-41.98
-43.40
-45.81
-49.17
-53.09
-57.01
-60.26
-62.12
-61.88
-58.91
-52.84
-43.88
-32.89
-21.24
-10.50
-1.94
3.83
6.93
7.98
7.78
6.98
6.00
5.00
4.02
2.98
1.77
0.26
-1.55
-3.49
-5.18
-6.17
-6.11
-4.91
-2.78
-0.15
2.61
5.23
7.64
9.82
11.74
13.21
14.01
13.91
12.77
10.62
7.59
4.01
0.32
-2.89
-4.99
-5.48
-4.02
-0.57
4.66
11.34
18.99
27.06
34.87
41.65
46.65
49.35
49.75
48.48
46.71
45.88
47.22
51.48
58.76
68.60
80.20
92.57
104.72
115.72
124.77
131.35
135.27
136.69
135.94
133.23
128.50
121.39
111.47
98.65
83.34
66.53
49.48
33.39
19.19
7.40
-1.78
-8.39
-12.65
-15.07
-16.37
-17.51
-19.42
-22.73
-27.67
-33.94
-40.91
-47.78
-53.89
-58.86
-62.57
-65.16
-66.84
-67.75
-67.85
-67.04
-65.24
-62.61
-59.58
-56.75
-54.63
-53.46
-53.07
-53.04
-52.97
-52.58
-51.81
-50.56
-48.49
-45.01
-39.55
-31.96
-22.78
-13.16
-4.29
3.02
8.67
13.12
16.90
20.25
22.97
24.69
25.30
25.08
24.62
24.46
24.71
24.99
24.69
23.36
20.98
18.03
15.30
13.61
13.45
14.82
17.19
19.73
21.62
22.32
21.75
20.24
18.19
15.90
13.40
10.62
7.54
4.45
1.87
0.35
0.15
1.01
2.26
2.96
2.26
-0.36
-4.97
-11.28
-18.67
-26.31
-33.26
-38.55
-41.31
-40.97
-37.31
-30.65
-21.72
-11.60
-1.44
7.76
15.29
20.82
24.37
26.27
26.96
26.83
26.17
25.03
23.35
21.00
17.97
14.28
10.12
5.66
1.16
-3.16
-7.02
-10.18
-12.43
-13.72
-14.21
-14.15
-13.83
-13.51
-13.23
-12.96
-12.56
-11.96
-11.19
-10.42
-9.86
-9.68
-9.91
-10.43
-10.99
-11.29
-11.13
-10.45
-9.45
-8.46
-7.92
-8.22
-9.54
-11.74
-14.36
-16.66
-17.80
-17.11
-14.27
-9.41
-3.12
3.79
10.53
16.53
21.50
25.41
28.34
30.35
31.45
31.58
30.78
29.14
26.89
24.30
21.61
18.98
16.50
14.17
12.00
10.03
8.28
6.80
5.57
4.47
3.38
2.22
0.94
-0.36
-1.57
-2.67
-3.75
-5.03
-6.77
-9.10
-11.96
-15.06
-18.03
-20.55
-22.50
-24.02
-25.43
-27.10
-29.24
-31.79
-34.34
-36.26
-36.85
-35.60
-32.36
-27.37
-21.21
-14.58
-8.10
-2.21
2.90
7.22
10.82
13.79
16.21
18.11
19.51
20.37
20.64
20.32
19.45
18.16
16.63
15.08
13.72
12.71
12.19
12.17
12.55
13.12
13.61
13.74
13.39
12.55
11.34
9.87
8.20
6.29
4.07
1.54
-1.19
-3.94
-6.51
-8.80
-10.87
-12.91
-15.13
-17.72
-20.74
-24.11
-27.57
-30.72
-33.04
-33.99
-33.15
-30.35
-25.76
-19.90
-13.48
-7.22
-1.69
2.79
6.08
8.20
9.28
9.45
8.91
7.91
6.64
5.28
3.92
2.53
1.05
-0.57
-2.31
-4.05
-5.53
-6.55
-6.97
-6.82
-6.36
-5.93
-5.81
-6.13
-6.72
-7.22
-7.20
-6.32
-4.46
-1.83
1.18
4.00
6.17
7.38
7.54
6.83
5.51
3.84
1.92
-0.29
-2.97
-6.28
-10.23
-14.55
-18.76
-22.19
-24.23
-24.50
-22.93
-19.79
-15.59
-10.92
-6.28
-2.00
1.78
5.09
8.04
10.74
13.29
15.74
18.09
20.29
22.21
23.70
24.59
24.79
24.31
23.33
22.15
21.11
20.50
20.48
20.93
21.60
22.12
22.19
21.71
20.75
19.52
18.23
16.98
15.72
14.35
12.74
10.84
8.68
6.30
3.76
1.07
-1.69
-4.39
-6.86
-8.96
-10.72
-12.32
-14.09
-16.33
-19.19
-22.50
-25.81
-28.48
-29.86
-29.51
-27.29
-23.42
-18.30
-12.51
-6.57
-0.96
4.02
8.18
11.48
13.95
15.66
16.69
17.13
17.04
16.52
15.69
14.70
13.67
12.71
11.83
11.05
10.36
9.80
9.45
9.40
9.70
10.33
11.16
12.03
12.74
13.16
13.24
13.00
12.55
11.96
11.28
10.48
9.50
8.28
6.82
5.17
3.48
1.91
0.61
-0.39
-1.19
-1.99
-3.02
-4.41
-6.17
-8.16
-10.20
-12.12
-13.87
-15.46
-16.95
-18.42
-19.94
-21.63
-23.59
-25.84
-28.17
-30.13
-31.13
-30.58
-28.20
-24.03
-18.52
-12.24
-5.78
0.40
6.02
10.90
14.93
18.05
20.29
21.72
22.52
22.88
22.98
22.95
22.89
22.88
22.92
23.02
23.05
22.83
22.14
20.76
18.56
15.57
11.94
7.92
3.85
0.08
-3.04
-5.24
-6.37
-6.45
-5.73
-4.65
-3.66
-3.15
-3.24
-3.79
-4.50
-5.06
-5.33
-5.35
-5.29
-5.39
-5.79
-6.54
-7.55
-8.71
-9.88
-10.95
-11.88
-12.68
-13.42
-14.24
-15.34
-16.90
-19.03
-21.60
-24.29
-26.56
-27.81
-27.55
-25.56
-21.95
-17.12
-11.64
-6.10
-0.99
3.38
6.85
9.44
11.24
12.38
13.00
13.21
13.02
12.41
11.39
9.99
8.35
6.72
5.39
4.69
4.80
5.77
7.39
9.25
10.87
11.87
12.06
11.51
10.50
9.38
8.45
7.84
7.50
7.22
6.73
5.86
4.56
3.03
1.50
0.19
-0.86
-1.79
-2.81
-4.06
-5.45
-6.73
-7.59
-7.93
-7.96
-8.15
-8.96
-10.66
-13.14
-16.08
-19.07
-21.86
-24.32
-26.38
-27.86
-28.48
-27.87
-25.85
-22.47
-18.11
-13.29
-8.52
-4.19
-0.47
2.54
4.82
6.39
7.26
7.48
7.19
6.60
6.03
5.77
6.05
6.86
7.99
9.06
9.71
9.72
9.18
8.36
7.68
7.47
7.84
8.74
9.92
11.05
11.84
12.09
11.75
10.92
9.77
8.47
7.10
5.69
4.16
2.50
0.78
-0.89
-2.33
-3.47
-4.33
-5.05
-5.75
-6.53
-7.35
-8.12
-8.78
-9.39
-10.18
-11.45
-13.40
-15.99
-18.86
-21.44
-23.11
-23.44
-22.31
-19.94
-16.75
-13.17
-9.56
-6.20
-3.24
-0.81
1.00
2.13
2.62
2.61
2.25
1.71
1.06
0.29
-0.65
-1.80
-3.10
-4.45
-5.71
-6.74
-7.49
-7.97
-8.19
-8.19
-8.01
-7.65
-7.14
-6.51
-5.82
-5.10
-4.44
-3.89
-3.50
-3.30
-3.27
-3.39
-3.62
-3.93
-4.34
-4.92
-5.78
-7.08
-9.00
-11.68
-15.23
-19.69
-25.10
-31.47
-38.87
-47.32
-56.72
-66.77
-76.92
-86.55
-95.09
-102.27
-108.24
-113.52
-118.77
-124.47
-130.61
-136.65
-141.62
-144.46
-144.19
-139.94
-130.98
-116.59
-96.15
-69.26
-35.76
4.28
50.45
101.75
155.93
209.12
256.01
290.91
309.48
310.39
296.08
272.04
245.14
221.35
203.96
192.88
184.79
174.21
154.91
121.54
71.41
5.88
-69.01
-143.38
-205.71
-245.97
-258.33
-242.75
-204.48
-152.21
-95.34
-41.75
3.44
37.94
61.64
75.72
81.95
82.24
78.38
71.83
63.64
54.54
45.17
36.20
28.38
22.42
18.84
17.86
19.37
22.96
27.93
33.37
38.20
41.42
42.39
41.05
37.95
34.06
30.37
27.54
25.67
24.38
23.07
21.26
18.77
15.79
12.76
10.13
8.20
7.01
6.40
6.05
5.63
4.92
3.85
2.48
0.99
-0.40
-1.48
-2.10
-2.25
-2.01
-1.54
-1.01
-0.57
-0.28
-0.18
-0.26
-0.57
-1.17
-2.14
-3.48
-5.13
-6.89
-8.52
-9.81
-10.68
-11.17
-11.46
-11.82
-12.54
-13.87
-15.89
-18.40
-20.93
-22.79
-23.31
-22.11
-19.22
-15.12
-10.52
-6.07
-2.21
0.89
3.29
5.08
6.33
7.04
7.19
6.82
6.02
4.96
3.84
2.87
2.16
1.73
1.48
1.31
1.16
1.09
1.24
1.72
2.56
3.61
4.64
5.41
5.80
5.80
5.50
5.02
4.46
3.84
3.19
2.52
1.87
1.22
0.52
-0.32
-1.40
-2.80
-4.53
-6.53
-8.67
-10.71
-12.44
-13.65
-14.27
-14.41
-14.35
-14.52
-15.28
-16.77
-18.77
-20.76
-22.08
-22.13
-20.62
-17.64
-13.56
-8.95
-4.34
-0.16
3.30
5.97
7.90
9.24
10.15
10.70
10.89
10.59
9.68
8.13
6.11
3.92
1.90
0.31
-0.75
-1.28
-1.36
-1.08
-0.53
0.22
1.04
1.77
2.30
2.56
2.57
2.38
2.05
1.62
1.09
0.47
-0.20
-0.85
-1.45
-1.99
-2.50
-3.04
-3.67
-4.46
-5.38
-6.39
-7.37
-8.18
-8.72
-8.98
-9.06
-9.19
-9.61
-10.51
-11.92
-13.69
-15.45
-16.68
-16.85
-15.52
-12.50
-7.96
-2.39
3.47
8.88
13.27
16.37
18.24
19.21
19.65
19.91
20.20
20.60
21.04
21.37
21.42
21.06
20.27
19.19
18.03
17.05
16.49
16.40
16.74
17.29
17.74
17.76
17.07
15.51
13.12
10.16
7.09
4.37
2.33
1.00
0.05
-1.00
-2.60
-4.92
-7.79
-10.77
-13.40
-15.35
-16.59
-17.29
-17.74
-18.16
-18.70
-19.42
-20.34
-21.50
-22.92
-24.46
-25.82
-26.49
-25.94
-23.81
-20.12
-15.33
-10.22
-5.60
-2.07
0.18
1.30
1.62
1.42
0.86
-0.01
-1.19
-2.63
-4.20
-5.76
-7.19
-8.43
-9.48
-10.33
-10.95
-11.32
-11.41
-11.24
-10.87
-10.36
-9.79
-9.17
-8.54
-7.91
-7.31
-6.80
-6.48
-6.41
-6.60
-7.00
-7.50
-7.96
-8.25
-8.25
-7.88
-7.14
-6.16
-5.17
-4.46
-4.27
-4.73
-5.78
-7.24
-8.88
-10.61
-12.37
-14.18
-15.92
-17.25
-17.66
-16.50
-13.22
-7.63
0.02
9.02
18.42
27.28
34.97
41.27
46.47
51.10
55.77
60.92
66.68
72.94
79.37
85.72
91.85
97.79
103.56
108.90
113.17
115.50
115.20
112.13
106.72
99.54
90.52
78.77
62.95
42.48
18.36
-6.95
-31.06
-53.49
-76.17
-101.81
-131.02
-160.45
-183.38
-193.01
-186.01
-164.28
-133.79
-101.39
-71.98
-47.82
-30.32
-21.86
-26.26
-46.86
-83.62
-131.56
-181.72
-224.31
-252.24
-263.24
-259.66
-246.69
-230.20
-215.00
-204.07
-198.47
-198.01
-201.81
-208.71
-217.34
-225.99
-232.33
-233.47
-226.63
-210.03
-183.70
-149.66
-111.19
-71.62
-33.13
3.84
40.47
78.83
120.79
166.84
215.45
263.01
304.63
335.43
352.04
353.56
341.59
319.22
289.81
256.05
219.91
183.23
148.38
118.26
95.54
81.44
75.04
73.49
73.26
71.62
67.74
62.71
58.77
58.17
62.37
71.49
84.42
98.85
111.34
117.63
113.39
95.76
64.99
25.38
-15.47
-49.11
-69.20
-73.45
-63.37
-42.28
-13.04
22.90
64.45
108.95
151.02
183.40
199.63
196.96
177.63
147.71
114.15
81.75
51.99
23.91
-3.81
-30.91
-55.08
-73.10
-82.50
-82.96
-76.53
-66.69
-56.80
-48.92
-43.45
-39.71
-37.02
-35.43
-35.76
-38.91
-44.95
-52.73
-60.20
-65.38
-67.38
-66.83
-65.55
-65.47
-67.65
-71.71
-76.21
-79.41
-80.14
-78.24
-74.35
-69.41
-64.06
-58.54
-52.77
-46.61
-40.03
-33.19
-26.32
-19.64
-13.35
-7.68
-2.83
1.01
3.82
5.75
7.09
8.06
8.74
9.03
8.77
7.87
6.37
4.45
2.21
-0.38
-3.42
-6.97
-10.86
-14.79
-18.38
-21.45
-24.16
-26.87
-29.86
-33.05
-35.94
-37.69
-37.54
-35.11
-30.56
-24.49
-17.67
-10.78
-4.34
1.35
6.07
9.66
12.03
13.23
13.49
13.14
12.54
11.87
11.16
10.26
9.02
7.40
5.51
3.68
2.29
1.65
1.83
2.63
3.63
4.28
4.19
3.21
1.57
-0.28
-1.80
-2.60
-2.56
-1.78
-0.53
0.91
2.26
3.23
3.47
2.59
0.23
-3.69
-8.94
-14.90
-20.84
-26.16
-30.65
-34.47
-37.98
-41.38
-44.47
-46.67
-47.41
-46.56
-44.73
-43.21
-43.37
-45.99
-50.61
-55.47
-58.00
-55.63
-46.64
-30.82
-9.65
14.00
36.54
54.73
66.54
71.73
71.91
69.72
67.87
68.23
71.16
75.31
77.81
75.22
65.18
48.46
30.30
19.71
25.96
53.90
100.52
155.17
203.80
235.19
245.52
238.81
223.37
206.52
190.90
174.59
153.90
126.32
91.75
51.72
8.14
-36.59
-78.36
-110.28
-123.54
-111.04
-71.73
-12.94
50.98
103.48
131.50
129.53
99.83
50.12
-9.94
-71.11
-125.56
-167.06
-191.46
-197.71
-188.73
-171.01
-152.46
-139.88
-136.44
-141.16
-150.29
-159.45
-165.44
-167.11
-164.96
-160.28
-154.32
-147.77
-140.72
-132.74
-123.23
-111.71
-98.02
-82.48
-65.82
-49.12
-33.55
-20.09
-9.39
-1.64
3.42
6.30
7.64
8.04
7.97
7.77
7.69
7.89
8.41
9.29
10.54
12.21
14.35
16.98
19.99
23.13
26.00
28.21
29.49
29.79
29.31
28.46
27.67
27.17
26.86
26.30
24.89
22.12
17.82
12.34
6.39
0.86
-3.61
-6.81
-9.10
-11.19
-13.90
-17.84
-23.16
-29.56
-36.38
-42.90
-48.64
-53.59
-58.18
-63.14
-69.26
-76.99
-86.33
-96.75
-107.25
-116.71
-124.17
-129.15
-131.77
-132.62
-132.52
-132.15
-131.76
-131.13
-129.57
-126.28
-120.47
-111.49
-98.82
-81.92
-60.35
-33.80
-2.41
33.31
72.56
114.40
157.62
200.40
240.00
273.00
296.10
307.20
306.30
295.51
278.16
257.58
236.15
215.18
195.52
178.12
164.15
154.50
148.91
145.68
141.98
134.96
122.84
105.55
84.60
62.40
41.18
22.29
5.93
-8.51
-21.82
-34.31
-45.62
-54.98
-61.81
-66.32
-69.70
-73.65
-79.55
-87.66
-96.81
-104.63
-108.44
-106.18
-97.07
-81.85
-62.49
-41.53
-21.46
-4.12
9.47
19.04
24.84
27.32
26.98
24.35
20.01
14.59
8.69
2.83
-2.58
-7.15
-10.47
-12.14
-11.84
-9.49
-5.30
0.35
7.03
14.32
21.73
28.54
33.76
36.42
35.92
32.45
26.96
20.83
15.17
10.44
6.40
2.36
-2.24
-7.53
-13.17
-18.55
-23.20
-26.99
-30.05
-32.74
-35.45
-38.61
-42.63
-47.82
-54.09
-60.89
-67.12
-71.54
-73.21
-71.93
-68.15
-62.67
-56.00
-48.09
-38.39
-26.34
-11.92
4.19
20.77
36.53
50.54
62.32
71.72
78.62
82.86
84.35
83.28
80.31
76.47
72.79
69.98
68.21
67.19
66.46
65.69
64.78
63.87
63.11
62.39
61.33
59.39
56.13
51.45
45.68
39.37
33.02
26.80
20.61
14.23
7.72
1.49
-3.78
-7.49
-9.53
-10.36
-10.91
-12.19
-14.93
-19.30
-25.02
-31.40
-37.64
-42.90
-46.41
-47.54
-45.96
-41.77
-35.50
-28.05
-20.42
-13.49
-7.88
-3.83
-1.30
-0.06
0.25
0.03
-0.31
-0.42
-0.07
0.69
1.66
2.50
2.92
2.79
2.20
1.42
0.75
0.45
0.61
1.12
1.78
2.37
2.72
2.80
2.60
2.20
1.68
1.14
0.69
0.38
0.18
-0.07
-0.64
-1.77
-3.55
-5.84
-8.36
-10.82
-13.07
-15.25
-17.59
-20.34
-23.61
-27.29
-31.16
-34.87
-38.02
-40.12
-40.62
-39.04
-35.22
-29.37
-22.17
-14.48
-7.18
-0.87
4.18
7.95
10.52
11.95
12.33
11.82
10.73
9.55
8.79
8.82
9.71
11.20
12.70
13.58
13.36
11.90
9.54
6.92
4.81
3.80
4.13
5.59
7.65
9.67
11.12
11.74
11.45
10.33
8.43
5.77
2.44
-1.33
-5.08
-8.31
-10.65
-12.07
-12.91
-13.63
-14.62
-15.94
-17.36
-18.61
-19.57
-20.45
-21.67
-23.66
-26.52
-29.90
-33.00
-34.78
-34.27
-31.01
-25.17
-17.51
-9.09
-0.90
6.49
12.99
18.90
24.80
31.19
38.20
45.42
51.65
55.14
54.04
47.44
35.84
21.41
7.73
-1.75
-4.56
-0.15
10.22
23.86
37.49
47.75
52.10
49.50
41.45
32.54
29.41
38.20
61.27
95.36
132.34
162.62
179.38
181.36
172.44
158.72
144.91
132.16
118.40
100.57
76.54
45.69
8.21
-35.14
-82.59
-129.90
-169.17
-190.72
-186.71
-155.74
-105.08
-49.09
-4.13
17.46
11.87
-15.72
-54.32
-91.88
-119.37
-132.76
-132.52
-121.99
-105.69
-88.03
-72.76
-62.48
-58.57
-60.93
-68.00
-77.28
-85.80
-90.90
-90.90
-85.51
-76.08
-65.14
-55.47
-49.12
-46.63
-46.93
-48.06
-48.02
-45.73
-41.32
-35.80
-30.47
-26.35
-23.86
-22.91
-23.06
-23.80
-24.65
-25.30
-25.66
-25.78
-25.86
-26.08
-26.54
-27.27
-28.34
-29.93
-32.28
-35.49
-39.27
-42.86
-45.18
-45.30
-42.72
-37.70
-31.03
-23.69
-16.49
-9.90
-4.05
1.05
5.37
8.93
11.90
14.61
17.41
20.39
23.15
24.85
24.63
22.11
17.73
12.67
8.40
5.95
5.48
6.28
7.18
7.21
6.03
4.09
2.30
1.55
2.26
4.18
6.45
7.88
7.20
3.36
-4.15
-14.75
-26.24
-34.71
-35.38
-24.27
-0.22
33.92
71.72
105.24
127.85
136.43
131.86
117.73
98.29
76.64
54.35
32.03
10.49
-8.70
-23.55
-32.48
-35.13
-32.65
-27.30
-21.61
-17.54
-15.98
-16.73
-18.80
-21.11
-22.91
-24.13
-25.27
-26.92
-29.34
-32.14
-34.38
-35.09
-33.78
-30.68
-26.53
-21.83
-16.27
-8.59
2.74
18.50
37.86
58.25
76.35
89.27
95.76
96.35
92.85
87.20
80.71
73.79
66.30
58.13
49.48
40.80
32.49
24.58
16.78
8.76
0.41
-7.95
-15.78
-22.52
-27.95
-32.28
-36.06
-39.82
-43.84
-47.92
-51.45
-53.55
-53.37
-50.39
-44.57
-36.41
-26.86
-17.00
-7.86
-0.10
6.06
10.77
14.38
17.20
19.33
20.63
20.91
20.01
18.04
15.33
12.48
10.04
8.49
8.05
8.63
9.91
11.41
12.69
13.44
13.61
13.37
12.99
12.65
12.34
11.86
10.92
9.32
7.06
4.35
1.48
-1.28
-3.83
-6.21
-8.57
-11.11
-13.98
-17.32
-21.19
-25.58
-30.25
-34.76
-38.53
-40.86
-41.15
-39.00
-34.37
-27.54
-19.12
-9.88
-0.70
7.66
14.63
19.93
23.48
25.43
26.06
25.70
24.70
23.36
21.88
20.37
18.89
17.44
16.02
14.71
13.64
12.96
12.80
13.22
14.15
15.37
16.57
17.43
17.73
17.41
16.59
15.47
14.20
12.80
11.16
9.16
6.80
4.19
1.56
-0.89
-3.12
-5.19
-7.27
-9.54
-12.12
-15.11
-18.58
-22.55
-26.94
-31.44
-35.53
-38.50
-39.70
-38.67
-35.36
-30.09
-23.43
-16.11
-8.76
-1.84
4.42
9.94
14.74
18.80
22.01
24.23
25.31
25.29
24.39
22.93
21.25
19.56
17.93
16.38
15.00
13.98
13.60
14.09
15.40
17.22
19.01
20.18
20.37
19.54
17.97
16.09
14.27
12.71
11.36
10.05
8.61
6.99
5.24
3.47
1.73
-0.03
-1.98
-4.25
-6.89
-9.71
-12.31
-14.22
-15.14
-15.20
-15.00
-15.50
-17.55
-21.49
-26.82
-32.26
-36.20
-37.26
-34.80
-29.11
-21.18
-12.37
-3.91
3.36
9.10
13.35
16.39
18.53
20.03
21.02
21.54
21.59
21.17
20.33
19.20
17.87
16.42
14.85
13.19
11.59
10.34
9.79
10.25
11.72
13.88
16.15
17.90
18.70
18.44
17.36
15.88
14.37
13.08
12.06
11.19
10.24
8.98
7.22
4.90
2.16
-0.73
-3.41
-5.63
-7.31
-8.58
-9.74
-11.15
-13.08
-15.65
-18.80
-22.30
-25.72
-28.53
-30.14
-30.05
-27.96
-23.87
-18.11
-11.27
-4.06
2.82
8.85
13.73
17.41
19.98
21.58
22.31
22.16
21.15
19.37
17.04
14.50
12.12
10.18
8.79
7.91
7.44
7.32
7.51
8.09
9.07
10.37
11.78
12.98
13.68
13.66
12.89
11.50
9.76
7.93
6.22
4.71
3.28
1.78
0.01
-2.10
-4.46
-6.88
-9.12
-11.04
-12.60
-13.89
-15.09
-16.38
-17.88
-19.73
-21.98
-24.62
-27.51
-30.25
-32.25
-32.82
-31.39
-27.70
-21.97
-14.82
-7.16
0.11
6.28
10.97
14.09
15.85
16.58
16.62
16.28
15.78
15.19
14.54
13.80
12.95
12.04
11.15
10.40
9.92
9.81
10.12
10.81
11.72
12.64
13.35
13.69
13.62
13.24
12.78
12.36
12.03
11.65
11.02
9.96
8.45
6.65
4.81
3.14
1.70
0.39
-1.03
-2.72
-4.70
-6.83
-8.83
-10.42
-11.46
-11.99
-12.28
-12.73
-13.76
-15.74
-18.81
-22.77
-27.10
-30.98
-33.53
-34.02
-32.12
-27.99
-22.22
-15.64
-9.10
-3.23
1.60
5.25
7.79
9.35
10.18
10.51
10.58
10.56
10.62
10.81
11.17
11.68
12.28
12.87
13.37
13.73
13.95
14.07
14.17
14.29
14.52
14.89
15.46
16.26
17.26
18.31
19.21
19.77
19.85
19.37
18.26
16.48
14.00
10.89
7.38
3.77
0.35
-2.81
-5.84
-8.89
-11.96
-14.77
-16.88
-17.95
-18.01
-17.54
-17.29
-17.96
-19.83
-22.72
-26.06
-29.11
-31.16
-31.64
-30.23
-26.87
-21.84
-15.71
-9.23
-3.15
2.03
6.10
9.10
11.16
12.44
13.07
13.18
12.86
12.20
11.20
9.84
8.21
6.48
5.00
4.07
3.90
4.45
5.51
6.78
8.05
9.21
10.23
11.03
11.47
11.34
10.53
9.15
7.55
6.22
5.54
5.59
5.95
5.94
4.89
2.55
-0.74
-4.17
-6.86
-8.38
-8.88
-9.04
-9.57
-10.87
-12.92
-15.38
-17.94
-20.44
-22.86
-25.03
-26.55
-26.88
-25.60
-22.70
-18.59
-13.91
-9.13
-4.34
0.70
6.27
12.29
18.27
23.33
26.60
27.52
25.98
22.36
17.36
11.91
6.92
3.13
0.89
0.02
-0.18
-0.66
-2.16
-4.86
-8.23
-11.20
-12.68
-11.99
-9.17
-4.88
-0.05
4.48
8.32
11.57
14.69
18.19
22.30
26.82
31.02
33.91
34.50
32.18
26.89
19.16
9.89
0.08
-9.35
-17.69
-24.42
-29.14
-31.61
-31.83
-30.13
-27.28
-24.30
-22.25
-21.97
-23.80
-27.48
-32.21
-36.81
-40.00
-40.67
-38.23
-32.68
-24.72
-15.56
-6.67
0.67
5.77
8.65
9.98
10.71
11.67
13.19
15.05
16.70
17.66
17.80
17.44
17.11
17.25
17.94
18.88
19.56
19.61
18.93
17.67
16.10
14.48
12.97
11.74
10.96
10.86
11.53
12.81
14.18
15.06
14.88
13.45
10.95
7.86
4.72
1.98
-0.12
-1.55
-2.45
-3.11
-3.81
-4.77
-6.05
-7.57
-9.14
-10.56
-11.66
-12.36
-12.65
-12.63
-12.53
-12.79
-13.92
-16.30
-19.88
-24.07
-27.77
-29.81
-29.36
-26.29
-21.16
-14.97
-8.71
-3.04
1.85
6.04
9.63
12.57
14.66
15.68
15.62
14.71
13.34
11.92
10.73
9.84
9.23
8.79
8.45
8.17
7.99
7.95
8.17
8.74
9.76
11.20
12.87
14.51
15.84
16.67
16.90
16.54
15.63
14.22
12.36
10.18
7.89
5.75
4.02
2.80
2.05
1.59
1.12
0.38
-0.77
-2.28
-3.95
-5.46
-6.56
-7.19
-7.63
-8.33
-9.86
-12.51
-16.13
-20.06
-23.27
-24.76
-23.87
-20.60
-15.44
-9.18
-2.56
3.98
10.33
16.48
22.34
27.71
32.27
35.80
38.28
39.86
40.76
41.12
41.01
40.58
40.16
40.20
40.94
42.12
42.68
41.08
35.81
26.16
12.72
-2.73
-17.73
-30.07
-38.43
-42.61
-43.20
-41.06
-36.87
-31.13
-24.47
-17.88
-12.76
-10.51
-12.01
-17.14
-24.90
-33.83
-42.68
-50.88
-58.56
-66.13
-73.77
-81.11
-87.35
-91.54
-93.03
-91.60
-87.39
-80.67
-71.69
-60.69
-48.06
-34.42
-20.60
-7.53
4.06
13.75
21.45
27.30
31.51
34.32
35.96
36.69
36.81
36.63
36.38
36.18
36.01
35.75
35.27
34.47
33.38
32.15
30.99
30.14
29.70
29.62
29.73
29.83
29.74
29.37
28.63
27.45
25.70
23.32
20.36
17.05
13.76
10.84
8.47
6.61
4.99
3.27
1.10
-1.79
-5.50
-9.99
-14.90
-19.63
-23.29
-25.02
-24.27
-21.18
-16.69
-12.31
-9.60
-9.61
-12.46
-17.37
-23.11
-28.69
-34.08
-40.50
-50.20
-65.69
-88.59
-118.78
-154.04
-190.47
-223.55
-249.33
-265.42
-271.27
-268.17
-258.73
-246.43
-234.90
-227.01
-224.02
-225.00
-227.08
-226.52
-220.29
-207.20
-188.08
-164.99
-139.88
-113.79
-86.76
-58.60
-29.69
-1.13
25.83
50.75
74.60
99.58
128.24
162.44
202.71
247.98
295.77
342.64
384.79
418.78
442.39
455.25
458.94
456.38
450.81
444.61
438.74
432.76
425.39
415.30
401.56
383.68
361.43
334.64
302.89
265.49
221.76
171.95
118.55
67.01
25.23
1.31
0.38
21.97
59.50
102.23
139.00
161.79
167.51
157.37
134.78
103.06
64.58
21.26
-24.21
-67.73
-104.29
-129.62
-141.90
-142.59
-136.01
-127.75
-122.46
-122.46
-127.37
-134.89
-142.30
-147.56
-149.90
-149.54
-147.09
-142.90
-137.02
-129.34
-119.97
-109.43
-98.51
-87.87
-77.59
-67.07
-55.36
-41.70
-26.28
-10.40
3.72
13.69
17.81
15.51
7.45
-4.93
-19.84
-35.61
-50.80
-64.36
-75.79
-85.34
-94.12
-103.65
-115.11
-128.52
-142.47
-154.70
-163.18
-167.21
-167.84
-167.21
-167.46
-169.59
-173.22
-177.01
-179.54
-179.99
-178.25
-174.64
-169.41
-162.61
-154.24
-144.44
-133.62
-122.29
-110.74
-98.95
-86.63
-73.57
-59.78
-45.68
-31.90
-19.03
-7.41
2.94
12.32
21.22
30.17
39.67
50.02
61.19
72.75
83.85
93.32
99.85
102.37
100.26
93.73
83.87
72.49
61.72
53.51
49.03
48.44
50.92
54.97
58.85
60.79
59.14
52.51
40.11
22.24
0.76
-20.90
-38.40
-47.78
-46.77
-35.62
-16.92
5.63
28.69
50.56
71.38
92.49
115.30
140.32
166.59
191.68
212.20
224.65
226.57
217.53
199.60
176.97
154.62
136.59
124.54
117.23
111.33
102.91
88.97
68.33
41.49
10.09
-23.86
-58.31
-91.37
-121.39
-147.10
-167.96
-184.20
-196.89
-207.63
-218.06
-229.38
-241.93
-255.08
-267.29
-276.53
-280.82
-278.92
-270.76
-257.49
-241.23
-224.46
-209.28
-196.95
-187.59
-180.05
-172.25
-161.47
-144.93
-120.36
-87.22
-47.82
-7.85
24.75
42.34
40.86
22.06
-6.69
-34.89
-52.68
-53.97
-37.90
-8.44
27.18
60.38
83.16
89.69
77.75
49.48
10.93
-29.39
-62.80
-82.49
-84.65
-68.46
-35.99
8.07
57.32
104.93
145.68
177.43
201.28
220.10
236.23
249.82
259.09
261.90
257.57
247.60
234.77
221.56
208.93
196.26
182.40
166.75
149.83
132.85
116.92
102.48
89.26
76.83
64.93
53.77
43.95
36.04
30.27
26.45
23.95
21.99
19.84
17.09
13.69
9.92
6.22
2.99
0.42
-1.59
-3.37
-5.33
-7.75
-10.63
-13.75
-16.79
-19.48
-21.69
-23.42
-24.67
-25.38
-25.46
-24.76
-23.24
-21.07
-18.58
-16.23
-14.43
-13.44
-13.18
-13.33
-13.31
-12.47
-10.29
-6.59
-1.65
3.90
9.31
14.10
18.25
22.18
26.47
31.46
36.98
42.43
46.96
49.95
51.13
50.64
48.79
45.86
42.02
37.36
32.12
26.78
22.00
18.50
16.70
16.64
17.91
19.87
21.90
23.68
25.26
27.10
29.81
33.98
39.92
47.52
56.27
65.52
74.67
83.44
91.92
100.38
108.94
117.31
124.75
130.33
133.34
133.82
132.58
130.96
130.28
131.21
133.40
135.55
135.80
132.24
123.41
108.60
88.04
63.04
35.86
9.26
-14.25
-33.27
-48.12
-60.78
-74.13
-90.60
-110.81
-133.03
-153.59
-168.48
-175.00
-173.02
-164.81
-153.96
-143.86
-136.54
-132.44
-130.87
-130.83
-131.41
-131.69
-130.38
-125.80
-116.29
-101.01
-80.70
-57.58
-34.63
-14.51
1.36
13.05
21.73
28.86
35.47
41.64
46.64
49.26
48.46
43.82
35.83
25.64
14.73
4.51
-4.14
-10.96
-16.30
-20.96
-25.83
-31.60
-38.52
-46.27
-54.11
-61.13
-66.52
-69.86
-71.18
-70.93
-69.80
-68.56
-67.95
-68.47
-70.31
-73.22
-76.44
-78.93
-79.56
-77.44
-72.17
-63.97
-53.63
-42.37
-31.58
-22.47
-15.78
-11.62
-9.46
-8.41
-7.56
-6.27
-4.32
-1.77
1.15
4.22
7.20
9.88
11.95
13.12
13.19
12.10
10.01
7.16
3.87
0.39
-3.05
-6.31
-9.28
-11.93
-14.26
-16.33
-18.24
-20.09
-21.99
-24.05
-26.34
-28.83
-31.41
-33.89
-36.04
-37.71
-38.88
-39.72
-40.66
-42.26
-45.07
-49.25
-54.40
-59.39
-62.67
-62.73
-58.72
-50.84
-40.34
-29.08
-18.92
-11.13
-6.06
-3.23
-1.61
-0.10
2.13
5.34
9.25
13.11
16.07
17.49
17.23
15.56
13.09
10.45
8.09
6.23
4.89
4.12
4.01
4.73
6.42
8.91
11.73
14.10
15.20
14.54
12.24
8.98
5.75
3.30
1.77
0.61
-1.09
-4.04
-8.33
-13.38
-18.27
-22.30
-25.42
-28.29
-31.89
-37.00
-43.80
-51.77
-59.84
-66.83
-71.73
-73.97
-73.36
-70.14
-64.91
-58.62
-52.52
-47.98
-46.25
-47.99
-53.08
-60.57
-69.05
-77.18
-84.23
-90.34
-96.26
-103.02
-111.39
-121.72
-134.01
-147.91
-162.68
-176.80
-187.77
-192.37
-187.41
-170.78
-142.32
-103.78
-58.29
-9.32
40.06
87.40
130.70
168.18
198.29
220.05
233.45
239.53
240.11
237.11
232.01
225.57
217.95
208.96
198.38
186.19
172.58
158.00
143.02
128.37
114.87
103.36
94.60
89.08
86.92
87.82
91.06
95.74
100.93
105.92
110.31
114.07
117.44
120.84
124.57
128.82
133.56
138.61
143.59
148.00
151.16
152.39
151.23
147.69
142.44
136.71
131.90
129.13
128.87
130.91
134.54
138.83
142.82
145.44
145.41
141.15
130.91
113.37
87.85
54.53
14.31
-31.65
-81.95
-135.04
-188.87
-240.76
-287.43
-325.49
-352.00
-365.16
-364.59
-351.45
-328.31
-298.78
-266.97
-236.79
-211.09
-191.01
-175.73
-162.84
-149.33
-132.70
-111.92
-87.60
-61.57
-36.15
-13.21
6.26
22.11
34.70
44.42
51.47
56.00
58.26
58.76
58.26
57.47
56.74
56.02
54.91
53.05
50.39
47.36
44.69
43.12
43.04
44.30
46.30
48.28
49.66
50.26
50.27
50.11
50.17
50.63
51.55
52.97
55.02
57.85
61.50
65.61
69.42
71.99
72.57
71.01
67.91
64.46
62.03
61.72
64.00
68.69
75.18
82.77
90.99
99.67
108.80
118.12
126.69
132.67
133.66
127.57
113.64
93.28
69.96
48.12
31.50
21.39
15.93
10.59
-0.08
-20.66
-53.52
-98.39
-152.43
-210.37
-264.93
-307.55
-330.36
-328.99
-305.03
-266.40
-224.80
-190.93
-169.63
-157.91
-146.96
-127.50
-95.30
-53.71
-12.01
19.36
33.75
30.82
15.52
-5.20
-25.80
-43.88
-59.38
-72.68
-83.07
-88.62
-87.47
-79.37
-66.39
-52.18
-40.32
-32.68
-28.86
-26.67
-23.56
-18.02
-10.49
-3.20
0.87
-0.77
-8.83
-21.96
-37.15
-51.13
-62.05
-70.54
-79.57
-93.09
-113.82
-141.44
-172.06
-199.32
-216.59
-219.17
-205.78
-179.05
-144.97
-111.68
-87.56
-78.87
-87.74
-111.24
-142.20
-171.74
-192.39
-200.37
-196.06
-182.58
-163.50
-141.28
-116.94
-90.83
-63.67
-36.80
-11.46
12.18
35.46
60.99
91.55
128.99
173.18
221.64
269.76
311.95
343.17
360.43
363.70
355.73
340.71
322.63
304.00
285.54
266.95
247.95
229.14
211.86
197.47
186.41
177.84
169.90
160.63
148.79
134.38
118.48
102.70
88.48
76.49
66.54
57.78
49.17
39.99
30.15
20.20
11.08
3.71
-1.41
-4.43
-6.03
-7.23
-8.86
-11.36
-14.66
-18.30
-21.70
-24.28
-25.58
-25.27
-23.19
-19.41
-14.33
-8.60
-2.94
2.01
5.99
9.09
11.59
13.80
15.78
17.42
18.42
18.62
18.12
17.37
17.01
17.67
19.75
23.24
27.78
32.85
38.09
43.48
49.39
56.32
64.65
74.32
84.72
95.01
104.34
112.32
119.17
125.60
132.55
140.93
151.52
164.78
180.74
198.41
215.68
229.48
236.58
234.47
222.25
200.80
172.00
138.04
100.34
59.46
15.80
-29.82
-75.84
-120.42
-162.21
-201.89
-242.13
-287.03
-339.96
-400.69
-463.88
-519.45
-555.62
-562.40
-535.73
-478.19
-398.50
-308.89
-221.71
-147.14
-91.75
-58.30
-45.48
-49.39
-59.39
-64.31
-55.88
-32.31
1.25
36.96
65.12
85.29
99.72
110.62
121.30
131.77
140.92
147.58
151.42
153.07
152.89
152.28
152.34
153.01
152.91
150.37
143.62
130.97
112.03
86.10
52.40
11.99
-30.59
-67.57
-90.04
-92.07
-74.46
-45.66
-19.01
-7.74
-19.99
-56.57
-112.04
-177.19
-241.99
-296.98
-333.98
-346.70
-331.97
-290.88
-228.87
-154.37
-76.16
-1.24
65.95
123.05
168.72
202.59
225.35
239.13
247.02
251.72
254.26
253.64
247.84
235.23
215.85
191.44
164.36
136.25
107.40
77.27
45.69
13.74
-16.40
-42.52
-63.79
-81.14
-96.55
-111.46
-125.65
-137.37
-144.47
-146.14
-143.55
-139.35
-136.18
-135.20
-135.57
-135.17
-131.94
-124.98
-114.83
-102.89
-90.57
-78.67
-67.35
-56.48
-46.12
-36.66
-28.57
-22.08
-16.93
-12.33
-7.34
-1.11
6.73
16.02
26.10
36.05
44.84
51.60
55.76
57.18
56.14
53.22
49.08
44.25
39.01
33.42
27.44
21.19
14.98
9.34
4.85
2.02
1.04
1.81
3.90
6.63
9.19
10.77
10.82
9.17
6.11
2.33
-1.21
-3.60
-4.24
-3.02
-0.29
3.30
6.98
10.11
12.22
12.95
12.13
9.73
5.93
1.10
-4.24
-9.55
-14.36
-18.34
-21.22
-22.87
-23.18
-22.13
-19.91
-16.92
-13.82
-11.35
-10.22
-10.90
-13.51
-17.75
-22.97
-28.30
-32.76
-35.57
-36.17
-34.42
-30.53
-24.99
-18.44
-11.55
-4.84
1.30
6.68
11.26
15.11
18.35
21.06
23.27
24.89
25.77
25.76
24.83
23.17
21.13
19.16
17.66
16.89
16.91
17.60
18.71
19.95
21.08
21.91
22.41
22.62
22.61
22.43
22.09
21.60
20.95
20.22
19.50
18.87
18.25
17.44
16.14
14.12
11.34
7.99
4.42
0.97
-2.10
-4.79
-7.18
-9.42
-11.59
-13.67
-15.63
-17.52
-19.52
-21.84
-24.66
-27.86
-31.09
-33.76
-35.19
-34.86
-32.47
-28.03
-21.84
-14.45
-6.53
1.15
7.91
13.27
17.02
19.27
20.31
20.56
20.40
20.07
19.62
18.93
17.87
16.40
14.72
13.23
12.36
12.39
13.38
15.08
17.07
18.89
20.18
20.75
20.60
20.00
19.32
18.97
19.17
19.80
20.46
20.58
19.66
17.57
14.50
10.87
7.07
3.42
0.06
-2.87
-5.28
-7.06
-8.25
-9.06
-9.81
-10.90
-12.56
-14.85
-17.63
-20.72
-23.88
-26.88
-29.48
-31.30
-31.89
-30.79
-27.74
-22.86
-16.70
-10.06
-3.69
1.87
6.45
10.05
12.72
14.39
14.91
14.25
12.61
10.40
8.16
6.30
4.95
3.96
3.01
1.89
0.55
-0.84
-1.91
-2.33
-1.85
-0.48
1.57
3.88
5.95
7.36
7.84
7.34
6.02
4.15
2.05
0.01
-1.70
-2.92
-3.56
-3.69
-3.49
-3.21
-3.02
-2.88
-2.50
-1.46
0.61
3.79
7.83
12.20
16.34
19.83
22.46
24.24
25.31
25.99
26.78
28.39
31.51
36.52
43.12
50.22
56.11
58.98
57.55
51.52
41.72
29.76
17.62
7.01
-0.94
-5.80
-7.81
-7.67
-6.32
-4.75
-3.78
-3.91
-5.15
-7.10
-9.12
-10.59
-11.15
-10.90
-10.27
-9.82
-10.03
-11.09
-12.88
-15.13
-17.56
-19.96
-22.19
-24.19
-25.93
-27.47
-29.03
-30.96
-33.56
-36.86
-40.46
-43.48
-44.83
-43.57
-39.29
-32.29
-23.52
-14.22
-5.60
1.54
6.94
10.81
13.63
15.87
17.81
19.44
20.54
20.87
20.30
18.91
16.94
14.75
12.70
11.06
10.02
9.69
10.04
10.94
12.13
13.32
14.24
14.76
14.90
14.73
14.29
13.54
12.35
10.62
8.38
5.82
3.22
0.79
-1.41
-3.49
-5.66
-8.06
-10.74
-13.61
-16.51
-19.30
-21.90
-24.22
-26.05
-27.08
-26.92
-25.23
-21.94
-17.25
-11.72
-6.05
-0.90
3.31
6.48
8.78
10.50
11.89
13.03
13.88
14.31
14.22
13.59
12.49
11.10
9.61
8.24
7.18
6.63
6.71
7.48
8.79
10.38
11.90
13.02
13.54
13.47
12.92
12.06
11.02
9.87
8.59
7.14
5.51
3.71
1.80
-0.15
-2.06
-3.88
-5.61
-7.32
-9.16
-11.26
-13.65
-16.29
-19.00
-21.57
-23.76
-25.35
-26.08
-25.68
-23.96
-20.83
-16.41
-11.05
-5.19
0.67
6.11
10.76
14.36
16.68
17.62
17.30
16.02
14.28
12.60
11.37
10.77
10.78
11.20
11.80
12.44
13.04
13.59
14.05
14.39
14.56
14.56
14.43
14.33
14.36
14.54
14.74
14.66
13.98
12.44
10.01
6.84
3.29
-0.27
-3.51
-6.25
-8.40
-10.07
-11.42
-12.73
-14.26
-16.19
-18.60
-21.40
-24.34
-27.05
-29.13
-30.17
-29.83
-27.93
-24.53
-19.90
-14.56
-9.15
-4.30
-0.53
1.87
2.87
2.66
1.66
0.34
-0.89
-1.89
-2.84
-4.22
-6.56
-10.18
-14.92
-20.12
-24.79
-28.02
-29.37
-29.16
-28.27
-27.88
-28.86
-31.51
-35.51
-40.16
-44.87
-49.48
-54.40
-60.60
-69.46
-82.75
-102.29
-129.31
-163.43
-201.84
-239.23
-269.04
-285.52
-285.98
-271.78
-247.81
-220.40
-194.94
-174.19
-158.26
-145.57
-134.41
-123.90
-114.09
-105.40
-97.92
-91.02
-83.41
-73.53
-60.10
-42.47
-20.84
3.93
30.68
58.43
86.67
115.55
145.65
177.78
212.86
252.14
297.11
348.94
407.16
468.42
526.24
572.34
599.35
603.66
586.87
555.01
515.95
476.25
439.41
405.79
374.17
343.46
313.70
285.75
260.34
237.42
216.11
195.41
174.98
155.48
138.49
125.68
118.03
115.20
115.50
116.36
115.15
109.98
100.25
86.57
70.30
52.81
34.74
15.85
-4.83
-28.36
-55.34
-85.61
-118.55
-153.67
-190.83
-229.98
-270.41
-310.02
-345.45
-372.95
-389.82
-395.18
-389.86
-375.35
-352.63
-321.85
-283.06
-237.48
-188.36
-140.51
-98.71
-65.94
-42.33
-25.62
-12.67
-1.02
10.16
20.40
28.67
34.55
38.56
42.01
46.31
52.24
59.58
67.28
74.06
79.04
82.09
83.86
85.39
87.67
91.33
96.73
104.15
113.98
126.39
140.73
154.99
165.77
169.15
162.16
144.17
117.24
85.35
52.73
22.15
-5.87
-32.71
-60.52
-90.95
-124.53
-160.50
-197.06
-231.57
-260.91
-282.18
-294.03
-297.90
-298.41
-301.99
-314.16
-336.79
-366.88
-397.79
-422.34
-435.93
-437.95
-430.77
-417.25
-398.57
-373.83
-341.44
-301.13
-255.18
-207.86
-163.59
-124.89
-91.48
-60.83
-29.63
4.65
43.12
85.53
130.69
176.89
221.87
262.88
296.90
321.33
334.79
337.62
331.76
320.01
305.02
288.66
271.85
254.88
237.87
220.88
203.77
185.96
166.51
144.48
119.52
92.30
64.47
38.27
15.77
-1.83
-14.54
-23.50
-30.59
-37.80
-46.60
-57.45
-69.63
-81.51
-91.11
-96.84
-98.03
-94.96
-88.61
-80.13
-70.57
-60.73
-51.28
-42.81
-35.75
-30.18
-25.85
-22.25
-18.99
-15.99
-13.52
-11.94
-11.37
-11.39
-11.24
-10.07
-7.44
-3.56
0.85
4.89
7.92
9.87
11.21
12.51
14.05
15.52
16.14
15.12
12.18
7.82
3.12
-0.70
-2.87
-3.37
-2.84
-2.15
-1.97
-2.50
-3.53
-4.68
-5.67
-6.54
-7.58
-9.10
-11.16
-13.50
-15.62
-17.00
-17.47
-17.22
-16.77
-16.73
-17.54
-19.26
-21.65
-24.18
-26.17
-26.92
-25.85
-22.61
-17.27
-10.32
-2.65
4.70
10.81
15.15
17.68
18.73
18.82
18.36
17.64
16.78
15.82
14.86
14.00
13.36
12.98
12.82
12.76
12.74
12.77
12.95
13.43
14.25
15.34
16.49
17.41
17.91
17.96
17.67
17.22
16.82
16.61
16.69
17.13
17.98
19.18
20.56
21.80
22.51
22.48
21.72
20.53
19.33
18.45
17.93
17.53
16.77
15.13
12.19
7.77
1.91
-5.10
-12.71
-20.13
-26.42
-30.71
-32.43
-31.49
-28.35
-23.80
-18.74
-13.90
-9.75
-6.55
-4.42
-3.43
-3.58
-4.70
-6.48
-8.45
-10.17
-11.34
-11.88
-11.85
-11.45
-10.82
-10.05
-9.17
-8.20
-7.14
-6.02
-4.87
-3.72
-2.58
-1.48
-0.45
0.48
1.26
1.79
1.97
1.76
1.13
0.13
-1.17
-2.71
-4.41
-6.19
-7.94
-9.50
-10.74
-11.63
-12.31
-13.07
-14.21
-15.89
-18.07
-20.49
-22.90
-25.13
-27.23
-29.35
-31.64
-34.07
-36.43
-38.30
-39.20
-38.64
-36.20
-31.64
-24.99
-16.55
-6.95
3.04
12.56
20.84
27.30
31.59
33.60
33.57
31.94
29.33
26.29
23.16
19.99
16.63
12.88
8.78
4.64
1.03
-1.39
-2.11
-0.87
2.24
6.77
12.02
17.12
21.31
24.05
25.25
25.17
24.32
23.17
21.96
20.60
18.82
16.41
13.40
10.13
7.10
4.71
3.08
2.00
1.08
-0.03
-1.47
-3.20
-5.07
-6.90
-8.57
-10.06
-11.40
-12.62
-13.81
-15.11
-16.69
-18.71
-21.26
-24.21
-27.11
-29.24
-29.76
-27.97
-23.60
-16.98
-8.94
-0.63
6.89
12.91
17.11
19.53
20.38
19.93
18.47
16.31
13.84
11.47
9.54
8.27
7.67
7.59
7.78
7.99
8.14
8.27
8.56
9.20
10.23
11.53
12.79
13.62
13.70
12.94
11.50
9.73
8.08
6.83
6.05
5.51
4.87
3.75
1.97
-0.44
-3.21
-5.96
-8.34
-10.08
-11.14
-11.67
-11.96
-12.37
-13.21
-14.71
-16.90
-19.65
-22.58
-25.11
-26.48
-25.99
-23.15
-17.97
-10.99
-3.21
4.19
10.25
14.42
16.70
17.44
17.18
16.34
15.22
14.00
12.78
11.65
10.65
9.85
9.17
8.58
7.99
7.38
6.79
6.32
6.04
6.05
6.39
7.07
8.00
8.98
9.73
9.94
9.41
8.09
6.18
4.00
1.92
0.18
-1.17
-2.24
-3.24
-4.40
-5.87
-7.71
-9.91
-12.39
-15.03
-17.67
-20.15
-22.29
-23.98
-25.24
-26.32
-27.70
-29.85
-33.05
-37.08
-41.23
-44.40
-45.56
-44.02
-39.77
-33.41
-25.98
-18.74
-12.84
-9.15
-8.05
-9.07
-10.96
-11.81
-9.73
-3.55
6.64
19.48
32.88
44.83
54.11
60.44
64.24
66.12
66.47
65.35
62.67
58.49
53.12
47.12
41.07
35.40
30.36
25.94
22.05
18.58
15.45
12.66
10.23
8.18
6.42
4.75
2.85
0.47
-2.54
-6.11
-10.00
-13.87
-17.38
-20.30
-22.50
-23.96
-24.72
-24.92
-24.76
-24.61
-24.83
-25.77
-27.61
-30.25
-33.27
-35.98
-37.51
-37.04
-34.06
-28.62
-21.30
-13.12
-5.19
1.59
6.73
10.20
12.25
13.30
13.76
13.88
13.81
13.57
13.16
12.55
11.76
10.85
9.86
8.86
7.88
7.06
6.56
6.63
7.44
8.96
10.88
12.74
14.04
14.51
14.20
13.44
12.61
12.01
11.70
11.47
10.99
9.97
8.23
5.85
3.04
0.14
-2.55
-4.79
-6.50
-7.72
-8.56
-9.19
-9.74
-10.31
-11.00
-11.95
-13.34
-15.34
-18.04
-21.38
-25.11
-28.77
-31.78
-33.47
-33.22
-30.66
-25.79
-19.04
-11.24
-3.44
3.44
8.75
12.32
14.36
15.31
15.64
15.73
15.74
15.64
15.25
14.36
12.90
10.97
8.94
7.25
6.28
6.17
6.80
7.90
9.16
10.42
11.64
12.78
13.78
14.46
14.61
14.13
13.07
11.63
10.08
8.62
7.31
6.11
4.89
3.55
2.02
0.28
-1.65
-3.69
-5.73
-7.65
-9.32
-10.64
-11.64
-12.50
-13.48
-14.90
-17.03
-19.93
-23.38
-26.81
-29.42
-30.35
-28.94
-24.94
-18.69
-11.03
-3.07
4.08
9.69
13.48
15.64
16.63
16.94
16.91
16.67
16.20
15.43
14.40
13.24
12.15
11.25
10.59
10.08
9.63
9.21
8.90
8.82
9.10
9.77
10.73
11.86
13.02
14.06
14.87
15.29
15.17
14.37
12.91
10.96
8.88
7.03
5.61
4.53
3.49
2.10
0.18
-2.24
-4.88
-7.42
-9.60
-11.38
-12.83
-14.06
-15.20
-16.38
-17.84
-19.89
-22.76
-26.43
-30.42
-33.88
-35.78
-35.30
-32.10
-26.40
-18.92
-10.65
-2.60
4.41
9.90
13.73
16.10
17.41
18.07
18.38
18.41
18.12
17.39
16.25
14.89
13.61
12.72
12.38
12.63
13.43
14.76
16.72
19.38
22.73
26.52
30.23
33.23
34.97
35.17
33.86
31.27
27.76
23.69
19.47
15.56
12.50
10.68
10.22
10.71
11.43
11.46
10.13
7.22
2.94
-2.18
-7.54
-12.68
-17.33
-21.43
-25.06
-28.39
-31.61
-34.95
-38.55
-42.48
-46.65
-50.81
-54.41
-56.71
-56.86
-54.18
-48.45
-40.06
-30.02
-19.68
-10.35
-2.91
2.40
5.86
8.11
9.76
11.19
12.47
13.47
14.06
14.28
14.28
14.27
14.35
14.49
14.60
14.65
14.77
15.16
16.00
17.26
18.70
20.00
20.89
21.32
21.38
21.24
20.90
20.28
19.17
17.43
15.10
12.44
9.79
7.49
5.72
4.44
3.49
2.65
1.75
0.74
-0.37
-1.56
-2.81
-4.12
-5.51
-6.97
-8.46
-9.97
-11.51
-13.13
-14.92
-16.97
-19.26
-21.66
-23.79
-25.10
-24.99
-22.99
-18.87
-12.85
-5.50
2.27
9.34
14.56
17.09
16.65
13.75
9.62
5.81
3.64
3.64
5.45
8.06
10.37
11.66
11.82
11.23
10.39
9.66
9.14
8.76
8.40
8.06
7.95
8.26
9.15
10.48
11.88
12.80
12.79
11.72
9.83
7.63
5.66
4.21
3.23
2.44
1.47
0.08
-1.71
-3.73
-5.71
-7.43
-8.77
-9.78
-10.62
-11.57
-12.92
-14.91
-17.66
-21.11
-24.95
-28.63
-31.38
-32.42
-31.13
-27.34
-21.40
-14.14
-6.71
-0.14
4.90
8.25
10.28
11.56
12.62
13.75
14.87
15.74
16.12
15.98
15.48
14.91
14.48
14.22
13.96
13.54
12.83
11.96
11.14
10.64
10.62
11.04
11.74
12.47
13.04
13.35
13.38
13.14
12.65
11.88
10.88
9.68
8.41
7.21
6.17
5.25
4.29
3.15
1.71
-0.03
-1.93
-3.85
-5.68
-7.34
-8.81
-10.15
-11.45
-12.96
-14.97
-17.81
-21.65
-26.31
-31.20
-35.41
-37.92
-37.94
-35.19
-29.99
-23.12
-15.61
-8.37
-2.08
2.97
6.75
9.43
11.23
12.40
13.15
13.65
13.98
14.12
13.98
13.50
12.69
11.74
10.87
10.33
10.20
10.44
10.89
11.41
11.91
12.38
12.84
13.25
13.55
13.65
13.55
13.33
13.10
13.01
13.04
13.03
12.72
11.85
10.30
8.19
5.84
3.66
1.96
0.84
0.11
-0.60
-1.65
-3.26
-5.42
-7.90
-10.40
-12.65
-14.44
-15.72
-16.53
-17.07
-17.61
-18.50
-19.98
-22.14
-24.74
-27.25
-28.98
-29.19
-27.39
-23.43
-17.56
-10.47
-3.08
3.62
8.84
12.23
13.93
14.43
14.37
14.24
14.17
14.06
13.70
12.98
12.00
11.01
10.24
9.77
9.49
9.26
8.99
8.80
8.90
9.45
10.43
11.54
12.38
12.58
12.00
10.80
9.36
8.07
7.17
6.65
6.32
5.96
5.46
4.83
4.14
3.39
2.52
1.43
0.09
-1.40
-2.87
-4.18
-5.35
-6.46
-7.66
-8.96
-10.26
-11.37
-12.26
-13.06
-14.10
-15.71
-18.05
-21.02
-24.24
-27.19
-29.28
-30.00
-28.98
-26.03
-21.25
-15.03
-8.01
-0.95
5.43
10.62
14.34
16.57
17.44
17.17
16.08
14.54
12.92
11.47
10.32
9.42
8.62
7.80
6.98
6.28
5.94
6.13
6.91
8.14
9.56
10.85
11.73
12.02
11.70
10.90
9.84
8.79
7.89
7.19
6.62
6.06
5.43
4.74
4.00
3.24
2.37
1.25
-0.24
-2.08
-4.12
-6.06
-7.66
-8.78
-9.51
-10.06
-10.74
-11.85
-13.59
-16.01
-19.01
-22.27
-25.37
-27.75
-28.86
-28.23
-25.61
-21.05
-14.96
-8.09
-1.38
4.30
8.37
10.76
11.80
12.06
12.00
11.82
11.47
10.79
9.75
8.49
7.29
6.42
6.00
5.96
6.15
6.43
6.76
7.22
7.87
8.74
9.71
10.60
11.25
11.55
11.53
11.27
10.93
10.59
10.21
9.66
8.83
7.64
6.14
4.48
2.78
1.15
-0.41
-1.90
-3.38
-4.90
-6.51
-8.24
-10.05
-11.81
-13.30
-14.33
-14.86
-15.10
-15.46
-16.43
-18.31
-21.09
-24.38
-27.47
-29.56
-29.96
-28.25
-24.41
-18.80
-12.08
-5.07
1.45
6.87
10.84
13.28
14.31
14.23
13.39
12.17
10.91
9.86
9.16
8.78
8.62
8.51
8.31
7.95
7.44
6.91
6.57
6.66
7.32
8.53
10.05
11.51
12.55
12.91
12.60
11.81
10.78
9.72
8.69
7.62
6.42
5.01
3.41
1.75
0.23
-0.99
-1.85
-2.43
-3.01
-3.92
-5.41
-7.48
-9.85
-12.06
-13.66
-14.49
-14.78
-15.05
-15.83
-17.48
-19.98
-22.96
-25.87
-28.12
-29.12
-28.42
-25.67
-20.86
-14.36
-6.96
0.23
6.13
10.08
11.98
12.34
11.98
11.64
11.72
12.14
12.54
12.48
11.71
10.32
8.62
7.02
5.86
5.26
5.19
5.51
6.08
6.80
7.60
8.40
9.13
9.69
10.00
10.00
9.70
9.13
8.33
7.37
6.31
5.24
4.25
3.40
2.69
2.05
1.38
0.56
-0.50
-1.85
-3.47
-5.24
-6.99
-8.53
-9.76
-10.72
-11.59
-12.61
-13.97
-15.78
-18.02
-20.56
-23.15
-25.37
-26.65
-26.37
-24.03
-19.53
-13.26
-6.10
0.89
6.75
10.93
13.37
14.42
14.58
14.33
13.97
13.61
13.20
12.63
11.80
10.68
9.33
7.91
6.62
5.64
5.17
5.29
6.02
7.28
8.84
10.41
11.70
12.46
12.59
12.13
11.19
9.96
8.59
7.19
5.85
4.59
3.40
2.25
1.07
-0.24
-1.75
-3.50
-5.44
-7.44
-9.30
-10.82
-11.91
-12.61
-13.20
-14.03
-15.42
-17.59
-20.46
-23.72
-26.82
-29.06
-29.76
-28.40
-24.81
-19.26
-12.47
-5.45
0.81
5.60
8.69
10.28
10.88
11.01
11.04
11.10
11.11
10.94
10.48
9.75
8.85
7.96
7.26
6.84
6.73
6.90
7.27
7.77
8.36
8.98
9.61
10.18
10.66
10.99
11.16
11.13
10.85
10.26
9.32
8.09
6.68
5.29
4.08
3.12
2.27
1.31
0.00
-1.80
-4.03
-6.46
-8.77
-10.70
-12.08
-12.96
-13.56
-14.18
-15.17
-16.74
-18.96
-21.71
-24.64
-27.24
-28.92
-29.12
-27.43
-23.79
-18.49
-12.14
-5.57
0.40
5.19
8.53
10.53
11.57
12.07
12.33
12.43
12.30
11.81
10.95
9.93
9.08
8.72
8.96
9.65
10.44
11.04
11.34
11.46
11.68
12.21
13.07
14.06
14.89
15.30
15.20
14.65
13.80
12.82
11.80
10.77
9.72
8.59
7.31
5.81
4.03
1.98
-0.25
-2.55
-4.78
-6.81
-8.53
-9.90
-10.90
-11.62
-12.27
-13.21
-14.74
-17.07
-20.04
-23.18
-25.76
-27.03
-26.48
-24.01
-19.93
-14.82
-9.38
-4.25
0.09
3.33
5.40
6.41
6.71
6.75
6.97
7.66
8.83
10.29
11.68
12.65
13.01
12.77
12.11
11.27
10.47
9.83
9.34
8.93
8.58
8.36
8.44
8.99
10.12
11.70
13.49
15.11
16.23
16.68
16.44
15.56
14.09
12.05
9.42
6.25
2.73
-0.84
-4.13
-6.86
-8.95
-10.53
-11.80
-13.02
-14.29
-15.61
-16.90
-18.07
-19.17
-20.34
-21.71
-23.28
-24.79
-25.77
-25.68
-24.16
-21.13
-16.91
-12.02
-7.07
-2.57
1.20
4.15
6.35
7.93
8.98
9.55
9.65
9.25
8.30
6.79
4.78
2.36
-0.26
-2.83
-5.11
-6.93
-8.19
-8.90
-9.08
-8.81
-8.20
-7.39
-6.57
-5.98
-5.79
-6.03
-6.56
-7.09
-7.33
-7.04
-6.22
-5.01
-3.66
-2.46
-1.62
-1.30
-1.53
-2.17
-2.96
-3.54
-3.55
-2.78
-1.21
0.97
3.55
6.39
9.45
12.79
16.40
20.15
23.76
26.90
29.27
30.70
31.16
30.71
29.45
27.49
24.95
22.01
18.93
16.09
13.92
12.84
13.03
14.39
16.51
18.80
20.73
21.96
22.40
22.17
21.34
19.92
17.86
15.13
11.93
8.53
5.20
2.00
-1.17
-4.60
-8.51
-12.98
-18.01
-23.45
-29.09
-34.51
-39.08
-42.03
-42.71
-40.83
-36.68
-31.04
-24.77
-18.59
-12.84
-7.57
-2.69
1.84
5.88
9.18
11.43
12.41
12.09
10.69
8.70
6.79
5.53
5.23
5.80
6.82
7.84
8.57
9.02
9.35
9.67
9.86
9.61
8.64
6.93
4.83
2.94
1.81
1.67
2.27
2.94
2.92
1.64
-1.00
-4.65
-8.65
-12.30
-15.15
-17.07
-18.28
-19.15
-20.15
-21.62
-23.76
-26.56
-29.76
-32.81
-34.95
-35.39
-33.51
-29.10
-22.50
-14.54
-6.29
1.25
7.37
11.79
14.55
15.98
16.47
16.40
16.08
15.71
15.41
15.22
15.17
15.24
15.39
15.58
15.70
15.72
15.64
15.57
15.67
16.07
16.77
17.60
18.33
18.74
18.72
18.31
17.65
16.89
16.10
15.28
14.43
13.51
12.53
11.47
10.31
8.99
7.52
5.95
4.33
2.67
0.90
-1.09
-3.33
-5.73
-8.08
-10.13
-11.72
-12.90
-13.88
-14.99
-16.50
-18.59
-21.27
-24.45
-27.89
-31.18
-33.77
-34.98
-34.22
-31.17
-25.95
-19.17
-11.80
-4.83
1.00
5.33
8.25
10.07
11.22
12.03
12.69
13.27
13.79
14.20
14.44
14.42
14.10
13.52
12.78
12.08
11.61
11.54
11.92
12.73
13.84
15.06
16.21
17.07
17.54
17.56
17.17
16.48
15.64
14.79
14.01
13.30
12.64
11.94
11.13
10.11
8.88
7.48
6.07
4.83
3.93
3.40
3.11
2.83
2.34
1.57
0.60
-0.38
-1.19
-1.75
-2.14
-2.54
-3.13
-4.05
-5.34
-6.95
-8.73
-10.53
-12.16
-13.55
-14.69
-15.73
-16.91
-18.50
-20.64
-23.32
-26.36
-29.38
-31.84
-33.12
-32.66
-30.09
-25.43
-19.16
-12.10
-5.23
0.69
5.20
8.30
10.26
11.40
11.93
11.96
11.53
10.72
9.74
8.84
8.20
7.82
7.56
7.20
6.64
5.95
5.42
5.39
6.13
7.68
9.86
12.26
14.42
15.92
16.58
16.44
15.74
14.80
13.90
13.15
12.52
11.93
11.25
10.44
9.50
8.44
7.24
5.89
4.39
2.83
1.31
-0.06
-1.29
-2.46
-3.73
-5.23
-7.00
-8.93
-10.84
-12.51
-13.76
-14.54
-14.96
-15.29
-15.85
-16.93
-18.67
-20.96
-23.43
-25.54
-26.70
-26.38
-24.25
-20.32
-14.89
-8.58
-2.21
3.41
7.69
10.36
11.57
11.76
11.46
11.08
10.77
10.48
10.05
9.39
8.50
7.54
6.64
5.91
5.37
5.02
4.88
5.03
5.55
6.46
7.64
8.83
9.73
10.08
9.80
9.02
8.01
7.09
6.52
6.39
6.59
6.87
6.95
6.60
5.77
4.54
3.15
1.81
0.65
-0.36
-1.36
-2.54
-4.03
-5.78
-7.62
-9.37
-10.83
-11.97
-12.78
-13.36
-13.79
-14.20
-14.75
-15.64
-17.04
-18.99
-21.29
-23.46
-24.86
-24.81
-22.92
-19.15
-13.90
-7.89
-1.94
3.21
7.14
9.79
11.38
12.26
12.75
12.97
12.90
12.46
11.59
10.41
9.07
7.78
6.63
5.63
4.74
3.96
3.43
3.31
3.77
4.83
6.32
7.94
9.32
10.18
10.45
10.19
9.64
9.01
8.42
7.88
7.26
6.42
5.28
3.89
2.39
0.95
-0.30
-1.36
-2.29
-3.19
-4.17
-5.30
-6.58
-7.98
-9.42
-10.80
-12.02
-13.00
-13.69
-14.15
-14.55
-15.08
-15.99
-17.36
-19.12
-20.89
-22.13
-22.23
-20.77
-17.68
-13.23
-8.02
-2.75
1.97
5.77
8.52
10.31
11.29
11.63
11.41
10.70
9.62
8.33
7.03
5.87
4.94
4.23
3.69
3.30
3.12
3.28
3.85
4.80
5.93
7.02
7.85
8.35
8.52
8.46
8.22
7.80
7.21
6.49
5.74
5.04
4.41
3.73
2.84
1.64
0.16
-1.39
-2.80
-3.88
-4.65
-5.25
-5.88
-6.67
-7.66
-8.76
-9.89
-10.93
-11.78
-12.39
-12.80
-13.15
-13.68
-14.63
-16.14
-18.10
-20.20
-21.89
-22.62
-21.93
-19.61
-15.72
-10.62
-4.94
0.61
5.35
8.87
11.07
12.17
12.53
12.45
12.09
11.43
10.44
9.18
7.84
6.65
5.83
5.40
5.24
5.13
4.92
4.60
4.30
4.27
4.65
5.47
6.59
7.73
8.60
9.00
8.89
8.35
7.56
6.68
5.83
5.00
4.11
3.04
1.72
0.20
-1.36
-2.75
-3.86
-4.72
-5.50
-6.48
-7.82
-9.55
-11.52
-13.44
-15.07
-16.30
-17.20
-18.02
-19.06
-20.57
-22.69
-25.41
-28.53
-31.78
-34.79
-37.16
-38.52
-38.58
-37.23
-34.66
-31.36
-28.08
-25.62
-24.57
-25.17
-27.24
-30.40
-34.21
-38.48
-43.19
-48.42
-54.17
-60.21
-66.15
-71.70
-76.83
-81.88
-87.34
-93.66
-100.92
-108.83
-116.75
-123.88
-129.36
-132.43
-132.45
-129.03
-122.05
-111.65
-98.15
-81.90
-63.19
-42.29
-19.64
4.01
27.55
49.74
69.58
86.54
100.66
112.30
122.01
130.32
137.79
145.10
152.98
162.00
172.14
182.67
192.18
199.11
202.41
202.00
198.79
194.21
189.65
185.89
183.06
180.93
179.19
177.70
176.44
175.37
174.28
172.94
171.27
169.55
168.21
167.49
166.98
165.40
160.79
151.04
134.46
110.21
78.54
40.71
-1.20
-44.40
-85.70
-121.80
-149.81
-167.73
-175.00
-172.61
-162.92
-149.08
-134.34
-121.37
-111.84
-106.25
-103.99
-103.65
-103.43
-101.65
-97.22
-89.97
-80.72
-71.06
-62.87
-57.76
-56.57
-59.24
-64.87
-72.14
-79.72
-86.63
-92.29
-96.38
-98.61
-98.56
-95.79
-90.02
-81.39
-70.52
-58.26
-45.41
-32.40
-19.40
-6.39
6.41
18.50
29.21
37.99
44.67
49.56
53.23
56.26
58.99
61.51
63.75
65.65
67.23
68.60
69.82
70.80
71.33
71.04
69.54
66.46
61.53
54.56
45.49
34.33
21.22
6.49
-9.18
-24.67
-38.47
-48.94
-54.76
-55.38
-51.26
-43.78
-34.85
-26.38
-19.91
-16.38
-16.13
-19.00
-24.41
-31.32
-38.39
-44.18
-47.51
-47.84
-45.47
-41.36
-36.83
-33.12
-30.99
-30.61
-31.65
-33.48
-35.41
-36.82
-37.23
-36.26
-33.74
-29.73
-24.57
-18.85
-13.20
-8.11
-3.77
-0.08
3.16
6.11
8.67
10.55
11.45
11.24
10.07
8.24
6.14
4.01
2.01
0.28
-1.02
-1.69
-1.63
-0.90
0.26
1.56
2.80
3.94
5.07
6.28
7.49
8.51
9.12
9.17
8.72
7.85
6.69
5.22
3.43
1.34
-0.85
-2.86
-4.40
-5.40
-5.96
-6.37
-6.92
-7.83
-9.17
-10.92
-13.02
-15.41
-18.11
-21.03
-24.02
-26.78
-28.90
-29.95
-29.59
-27.68
-24.29
-19.75
-14.49
-8.99
-3.68
1.14
5.24
8.42
10.58
11.63
11.60
10.64
9.00
7.02
5.05
3.38
2.21
1.66
1.83
2.75
4.36
6.47
8.73
10.77
12.31
13.24
13.67
13.84
13.95
14.12
14.29
14.36
14.18
13.72
12.97
11.96
10.74
9.37
7.95
6.55
5.21
3.94
2.65
1.29
-0.23
-1.90
-3.71
-5.64
-7.64
-9.70
-11.85
-14.11
-16.50
-19.10
-21.88
-24.73
-27.37
-29.34
-30.09
-29.13
-26.17
-21.28
-14.95
-8.03
-1.48
3.91
7.72
9.99
11.09
11.56
11.90
12.48
13.49
14.97
16.83
18.77
20.31
20.88
20.00
17.53
13.77
9.49
5.66
3.14
2.48
3.71
6.47
10.12
13.99
17.55
20.48
22.63
24.02
24.72
24.88
24.72
24.58
24.90
26.13
28.63
32.45
37.36
42.77
47.94
52.12
54.82
55.89
55.61
54.56
53.38
52.44
51.56
49.91
46.20
39.09
27.77
12.38
-5.83
-24.78
-42.08
-55.76
-64.67
-68.65
-68.37
-64.97
-59.72
-53.80
-48.15
-43.43
-39.96
-37.57
-35.73
-33.63
-30.55
-26.20
-20.92
-15.60
-11.41
-9.33
-9.73
-12.25
-15.90
-19.40
-21.53
-21.53
-19.19
-14.90
-9.48
-3.96
0.74
4.05
5.80
6.30
6.08
5.68
5.45
5.49
5.71
5.95
6.14
6.28
6.39
6.41
6.16
5.36
3.71
1.07
-2.49
-6.58
-10.66
-14.21
-16.86
-18.58
-19.51
-19.84
-19.61
-18.77
-17.19
-14.90
-12.09
-9.06
-6.00
-2.88
0.46
4.13
7.90
11.16
13.12
13.11
10.90
6.86
1.83
-3.15
-7.17
-9.65
-10.48
-9.96
-8.65
-7.20
-6.04
-5.32
-4.89
-4.43
-3.62
-2.30
-0.54
1.45
3.35
4.86
5.74
5.83
5.02
3.38
1.15
-1.27
-3.39
-4.80
-5.30
-5.11
-4.78
-5.15
-7.02
-10.92
-16.75
-23.73
-30.51
-35.58
-37.76
-36.59
-32.50
-26.57
-20.15
-14.27
-9.42
-5.48
-1.91
1.86
6.19
11.01
15.85
19.99
22.71
23.52
22.35
19.63
16.13
12.82
10.52
9.67
10.21
11.60
13.12
14.10
14.26
13.73
13.00
12.57
12.78
13.58
14.63
15.43
15.65
15.13
13.98
12.40
10.56
8.53
6.30
3.81
1.12
-1.66
-4.27
-6.43
-8.00
-9.00
-9.71
-10.58
-12.02
-14.29
-17.32
-20.75
-24.01
-26.45
-27.57
-27.05
-24.85
-21.19
-16.48
-11.19
-5.78
-0.64
3.98
7.93
11.13
13.59
15.37
16.62
17.53
18.26
18.91
19.47
19.85
20.00
19.87
19.51
19.03
18.50
18.00
17.52
17.02
16.44
15.71
14.85
13.96
13.22
12.76
12.57
12.46
12.06
11.10
9.53
7.64
5.88
4.60
3.81
3.15
2.17
0.64
-1.28
-3.11
-4.47
-5.39
-6.36
-8.12
-11.15
-15.40
-20.22
-24.70
-28.08
-30.04
-30.64
-30.12
-28.60
-26.04
-22.29
-17.32
-11.34
-4.84
1.57
7.35
12.14
15.80
18.32
19.77
20.20
19.69
18.40
16.57
14.52
12.59
11.04
10.03
9.60
9.69
10.17
10.88
11.63
12.26
12.68
12.89
12.96
12.93
12.79
12.46
11.85
10.97
9.96
9.07
8.47
8.15
7.88
7.27
5.95
3.75
0.77
-2.57
-5.74
-8.26
-9.96
-11.07
-12.14
-13.82
-16.54
-20.37
-24.90
-29.39
-33.04
-35.15
-35.26
-33.19
-28.99
-22.99
-15.77
-8.11
-0.90
5.15
9.67
12.77
14.87
16.48
17.92
19.16
19.90
19.72
18.40
15.98
12.78
9.31
6.08
3.59
2.20
2.09
3.22
5.19
7.36
9.00
9.58
8.98
7.56
5.96
4.89
4.79
5.77
7.57
9.71
11.64
12.84
12.94
11.82
9.61
6.72
3.73
1.20
-0.45
-1.08
-0.92
-0.41
-0.10
-0.54
-2.06
-4.73
-8.30
-12.28
-15.97
-18.66
-19.81
-19.17
-16.82
-13.26
-9.15
-5.19
-1.87
0.64
2.52
4.10
5.74
7.61
9.66
11.64
13.26
14.31
14.69
14.44
13.60
12.21
10.30
7.99
5.57
3.48
2.19
1.98
2.78
4.19
5.58
6.48
6.70
6.40
5.92
5.53
5.26
4.91
4.18
2.92
1.22
-0.64
-2.32
-3.63
-4.61
-5.52
-6.67
-8.23
-10.22
-12.43
-14.64
-16.62
-18.21
-19.24
-19.45
-18.48
-15.99
-11.88
-6.44
-0.38
5.39
10.05
13.18
14.77
15.19
14.87
14.18
13.27
12.17
10.86
9.36
7.74
6.12
4.62
3.39
2.56
2.29
2.66
3.70
5.21
6.84
8.07
8.51
7.93
6.51
4.68
2.98
1.84
1.37
1.32
1.27
0.79
-0.38
-2.23
-4.57
-7.12
-9.58
-11.73
-13.50
-14.93
-16.26
-17.71
-19.39
-21.11
-22.38
-22.54
-21.04
-17.78
-13.10
-7.75
-2.50
2.08
5.72
8.42
10.26
11.30
11.54
11.10
10.27
9.44
8.97
8.93
9.01
8.68
7.47
5.26
2.47
-0.09
-1.56
-1.42
0.18
2.53
4.64
5.74
5.58
4.50
3.15
2.12
1.62
1.42
1.04
0.09
-1.55
-3.60
-5.64
-7.30
-8.48
-9.34
-10.25
-11.57
-13.48
-15.91
-18.50
-20.71
-22.00
-21.91
-20.25
-17.13
-12.91
-8.08
-3.15
1.52
5.72
9.32
12.21
14.25
15.24
15.12
13.99
12.21
10.28
8.66
7.57
6.92
6.43
5.81
4.91
3.87
2.95
2.45
2.49
3.04
3.89
4.72
5.26
5.32
4.85
3.97
2.92
1.95
1.19
0.58
-0.09
-1.10
-2.61
-4.61
-6.83
-8.91
-10.52
-11.56
-12.18
-12.71
-13.52
-14.83
-16.57
-18.33
-19.53
-19.56
-17.99
-14.70
-9.94
-4.26
1.57
6.78
10.79
13.33
14.51
14.76
14.57
14.36
14.26
14.12
13.67
12.70
11.17
9.30
7.40
5.75
4.55
3.86
3.69
4.01
4.74
5.70
6.65
7.32
7.51
7.22
6.65
6.11
5.82
5.77
5.74
5.34
4.31
2.58
0.32
-2.13
-4.46
-6.49
-8.23
-9.79
-11.32
-12.97
-14.74
-16.60
-18.47
-20.23
-21.73
-22.74
-22.95
-22.07
-19.88
-16.39
-11.87
-6.81
-1.78
2.72
6.34
8.96
10.60
11.36
11.42
10.96
10.19
9.28
8.38
7.58
6.89
6.30
5.83
5.48
5.26
5.20
5.28
5.49
5.77
6.05
6.23
6.23
6.04
5.68
5.24
4.80
4.37
3.93
3.42
2.74
1.79
0.51
-1.16
-3.14
-5.27
-7.28
-8.89
-9.98
-10.69
-11.40
-12.57
-14.58
-17.45
-20.82
-24.03
-26.33
-27.11
-26.10
-23.38
-19.32
-14.40
-9.12
-3.87
1.02
5.25
8.52
10.60
11.43
11.23
10.46
9.62
9.08
8.88
8.82
8.60
8.08
7.38
6.79
6.62
6.99
7.85
8.99
10.26
11.56
12.90
14.24
15.43
16.17
16.16
15.26
13.57
11.54
9.68
8.45
7.94
7.89
7.80
7.18
5.74
3.52
0.84
-1.91
-4.43
-6.57
-8.39
-10.01
-11.57
-13.12
-14.58
-15.71
-16.19
-15.67
-13.95
-11.02
-7.13
-2.68
1.89
6.22
10.05
13.21
15.63
17.28
18.15
18.26
17.59
16.11
13.82
10.81
7.40
4.12
1.64
0.61
1.48
4.21
8.24
12.49
15.63
16.49
14.46
9.78
3.46
-3.06
-8.50
-12.10
-13.85
-14.21
-13.81
-13.08
-12.15
-10.97
-9.48
-7.75
-6.03
-4.66
-4.04
-4.56
-6.49
-9.85
-14.25
-18.88
-22.66
-24.62
-24.25
-21.67
-17.56
-12.80
-8.14
-3.90
-0.09
3.44
6.74
9.66
11.96
13.40
13.88
13.49
12.43
10.91
9.14
7.26
5.39
3.63
2.08
0.85
0.03
-0.30
-0.12
0.53
1.49
2.52
3.33
3.70
3.50
2.81
1.77
0.58
-0.66
-1.92
-3.24
-4.71
-6.34
-8.13
-10.01
-11.96
-13.94
-15.91
-17.74
-19.15
-19.74
-19.14
-17.12
-13.79
-9.52
-4.87
-0.41
3.45
6.53
8.82
10.45
11.60
12.42
13.01
13.34
13.35
12.96
12.19
11.21
10.28
9.62
9.25
9.03
8.75
8.32
7.92
7.85
8.30
9.15
9.89
9.94
8.94
7.09
4.97
3.24
2.18
1.61
1.00
-0.15
-2.02
-4.41
-6.98
-9.42
-11.55
-13.32
-14.66
-15.54
-16.06
-16.53
-17.46
-19.27
-22.08
-25.53
-28.87
-31.31
-32.23
-31.41
-28.97
-25.39
-21.28
-17.35
-14.19
-12.07
-10.74
-9.52
-7.50
-4.04
0.94
6.89
12.88
18.04
21.88
24.35
25.69
26.12
25.73
24.45
22.31
19.57
16.76
14.56
13.46
13.58
14.55
15.69
16.31
16.03
14.90
13.42
12.18
11.62
11.80
12.40
12.92
12.89
12.12
10.71
8.95
7.18
5.65
4.43
3.41
2.32
0.85
-1.22
-3.88
-6.84
-9.66
-11.87
-13.18
-13.58
-13.26
-12.51
-11.43
-9.93
-7.80
-4.89
-1.36
2.37
5.69
8.14
9.50
9.88
9.59
9.02
8.55
8.51
9.08
10.26
11.80
13.23
14.03
13.81
12.54
10.50
8.14
5.90
4.04
2.62
1.60
0.94
0.60
0.58
0.81
1.22
1.73
2.28
2.79
3.12
3.12
2.62
1.61
0.20
-1.38
-2.95
-4.47
-6.04
-7.84
-9.96
-12.29
-14.65
-16.85
-18.85
-20.78
-22.77
-24.75
-26.30
-26.75
-25.43
-22.00
-16.64
-10.11
-3.56
1.82
5.08
5.78
4.10
0.79
-3.03
-6.23
-7.99
-8.07
-6.85
-5.03
-3.42
-2.51
-2.36
-2.68
-3.06
-3.17
-2.84
-2.10
-1.04
0.23
1.62
3.03
4.35
5.45
6.28
6.85
7.17
7.27
7.11
6.60
5.66
4.33
2.76
1.16
-0.31
-1.70
-3.19
-5.03
-7.40
-10.26
-13.35
-16.35
-18.91
-20.81
-21.89
-21.98
-20.91
-18.49
-14.69
-9.74
-4.15
1.47
6.52
10.64
13.76
16.00
17.51
18.36
18.50
17.86
16.49
14.63
12.60
10.76
9.26
8.11
7.14
6.19
5.17
4.13
3.15
2.34
1.75
1.40
1.25
1.24
1.26
1.23
1.05
0.70
0.15
-0.56
-1.50
-2.73
-4.27
-6.05
-7.88
-9.56
-10.97
-12.15
-13.25
-14.52
-16.08
-17.94
-19.93
-21.71
-22.89
-23.03
-21.80
-19.06
-15.03
-10.17
-5.14
-0.55
3.23
6.12
8.22
9.68
10.60
10.98
10.83
10.22
9.30
8.23
7.16
6.16
5.20
4.28
3.40
2.67
2.20
2.11
2.44
3.10
3.90
4.60
4.98
4.98
4.66
4.18
3.64
3.07
2.35
1.35
0.02
-1.56
-3.27
-4.98
-6.67
-8.39
-10.19
-12.07
-14.01
-15.94
-17.75
-19.29
-20.31
-20.44
-19.30
-16.67
-12.65
-7.73
-2.61
2.00
5.64
8.20
9.89
11.03
11.91
12.67
13.28
13.57
13.34
12.50
11.11
9.40
7.68
6.21
5.18
4.61
4.48
4.72
5.27
6.04
6.92
7.79
8.54
9.08
9.33
9.25
8.74
7.72
6.20
4.29
2.20
0.14
-1.78
-3.61
-5.48
-7.51
-9.70
-11.89
-13.86
-15.35
-16.16
-16.12
-15.14
-13.15
-10.17
-6.35
-2.01
2.47
6.70
10.43
13.59
16.15
18.04
19.01
18.76
17.10
14.23
10.76
7.58
5.50
4.82
5.28
6.11
6.48
5.90
4.38
2.43
0.71
-0.30
-0.53
-0.28
-0.07
-0.36
-1.37
-3.06
-5.22
-7.59
-9.97
-12.22
-14.25
-16.01
-17.51
-18.84
-20.18
-21.74
-23.66
-25.85
-28.05
-29.84
-30.79
-30.57
-28.98
-25.96
-21.65
-16.33
-10.48
-4.66
0.54
4.74
7.86
10.09
11.78
13.21
14.48
15.44
15.88
15.63
14.73
13.43
12.08
10.94
10.15
9.66
9.38
9.22
9.18
9.34
9.80
10.57
11.51
12.39
12.93
12.89
12.22
10.97
9.32
7.44
5.49
3.55
1.66
-0.13
-1.86
-3.53
-5.29
-7.34
-9.89
-13.02
-16.58
-20.06
-22.66
-23.53
-22.01
-17.92
-11.71
-4.35
3.00
9.26
13.84
16.67
18.07
18.60
18.85
19.22
19.95
21.05
22.31
23.35
23.73
23.04
21.14
18.15
14.47
10.61
7.03
4.03
1.72
0.04
-1.13
-1.93
-2.47
-2.83
-3.11
-3.35
-3.60
-3.83
-4.00
-4.05
-3.97
-3.83
-3.78
-4.00
-4.69
-5.93
-7.69
-9.88
-12.33
-14.91
-17.49
-19.90
-21.89
-23.13
-23.30
-22.16
-19.69
-16.12
-11.85
-7.33
-2.91
1.19
4.97
8.47
11.73
14.65
17.03
18.61
19.23
18.89
17.81
16.32
14.76
13.35
12.14
11.07
10.06
9.11
8.30
7.75
7.53
7.61
7.88
8.16
8.35
8.46
8.57
8.81
9.19
9.57
9.68
9.19
7.91
5.83
3.21
0.36
-2.45
-5.11
-7.68
-10.22
-12.73
-15.04
-16.98
-18.45
-19.50
-20.26
-20.71
-20.62
-19.54
-17.04
-12.98
-7.67
-1.77
3.89
8.65
12.16
14.42
15.64
16.02
15.74
14.92
13.67
12.14
10.52
9.03
7.84
7.06
6.73
6.82
7.31
8.17
9.33
10.62
11.82
12.63
12.82
12.35
11.38
10.23
9.15
8.22
7.28
6.09
4.47
2.45
0.28
-1.77
-3.56
-5.21
-6.99
-9.20
-11.94
-15.07
-18.21
-20.94
-22.89
-23.81
-23.58
-22.17
-19.61
-16.03
-11.71
-7.06
-2.52
1.52
4.92
7.73
10.08
12.09
13.65
14.54
14.51
13.50
11.69
9.51
7.42
5.80
4.85
4.55
4.77
5.26
5.79
6.15
6.26
6.22
6.23
6.56
7.33
8.37
9.27
9.47
8.60
6.65
4.01
1.38
-0.61
-1.63
-1.80
-1.59
-1.59
-2.27
-3.78
-5.95
-8.43
-10.88
-13.10
-15.10
-17.06
-19.25
-21.84
-24.76
-27.64
-29.81
-30.50
-29.08
-25.32
-19.52
-12.44
-5.09
1.53
6.75
10.30
12.32
13.21
13.53
13.75
14.20
14.94
15.81
16.54
16.89
16.83
16.52
16.24
16.24
16.62
17.28
17.99
18.52
18.73
18.60
18.18
17.57
16.84
16.03
15.16
14.27
13.41
12.70
12.19
11.78
11.14
9.80
7.35
3.71
-0.61
-4.63
-7.25
-7.79
-6.43
-4.18
-2.46
-2.45
-4.49
-7.97
-11.62
-14.24
-15.28
-15.08
-14.58
-14.81
-16.25
-18.59
-20.80
-21.63
-20.07
-15.91
-9.77
-2.98
2.92
6.72
7.90
6.94
5.06
3.81
4.49
7.68
13.07
19.62
26.03
31.18
34.49
35.98
36.07
35.23
33.69
31.35
27.89
23.12
17.20
10.77
4.79
0.19
-2.53
-3.49
-3.37
-3.18
-3.90
-6.23
-10.49
-16.58
-24.00
-31.88
-39.07
-44.30
-46.61
-45.66
-41.92
-36.50
-30.77
-25.83
-22.17
-19.75
-18.24
-17.39
-17.15
-17.63
-18.83
-20.51
-22.21
-23.34
-23.51
-22.55
-20.56
-17.75
-14.35
-10.50
-6.32
-1.87
2.76
7.46
12.03
16.24
19.79
22.47
24.14
24.90
24.97
24.64
24.08
23.33
22.26
20.73
18.77
16.64
14.84
13.92
14.21
15.60
17.58
19.37
20.25
19.88
18.47
16.58
14.98
14.28
14.74
16.13
17.74
18.50
17.23
12.85
4.90
-6.12
-18.63
-30.28
-38.60
-41.92
-39.85
-33.45
-24.75
-16.07
-9.36
-5.80
-5.78
-8.94
-14.44
-21.04
-27.31
-31.88
-33.65
-32.11
-27.49
-20.68
-12.94
-5.60
0.33
4.30
6.25
6.57
5.76
4.37
2.75
1.15
-0.28
-1.33
-1.77
-1.39
-0.10
1.98
4.61
7.45
10.25
12.79
14.94
16.50
17.25
16.96
15.59
13.39
10.93
8.94
7.94
8.08
9.04
10.13
10.63
10.03
8.22
5.46
2.25
-0.86
-3.44
-5.33
-6.59
-7.49
-8.37
-9.55
-11.25
-13.50
-16.10
-18.65
-20.59
-21.32
-20.39
-17.72
-13.64
-8.92
-4.49
-1.16
0.67
1.12
0.73
0.12
-0.22
-0.10
0.45
1.29
2.30
3.39
4.52
5.54
6.32
6.69
6.61
6.19
5.68
5.36
5.44
5.98
6.88
7.90
8.73
9.09
8.83
8.00
6.86
5.78
5.11
4.98
5.26
5.58
5.51
4.74
3.18
1.02
-1.43
-3.86
-6.11
-8.16
-10.07
-11.90
-13.67
-15.37
-17.02
-18.59
-20.06
-21.24
-21.83
-21.48
-19.95
-17.18
-13.42
-9.07
-4.63
-0.48
3.13
6.14
8.62
10.69
12.47
14.02
15.29
16.15
16.43
16.05
15.01
13.46
11.56
9.51
7.43
5.47
3.82
2.71
2.34
2.74
3.75
4.98
6.02
6.50
6.30
5.53
4.44
3.31
2.31
1.46
0.69
-0.12
-1.02
-2.01
-3.06
-4.11
-5.18
-6.29
-7.49
-8.81
-10.27
-11.87
-13.58
-15.33
-16.98
-18.27
-18.84
-18.30
-16.42
-13.21
-8.99
-4.29
0.29
4.25
7.34
9.49
10.80
11.40
11.42
11.02
10.35
9.56
8.78
8.05
7.32
6.48
5.49
4.36
3.28
2.46
2.11
2.31
2.99
3.90
4.77
5.37
5.55
5.32
4.77
4.03
3.20
2.34
1.44
0.42
-0.79
-2.22
-3.81
-5.46
-7.06
-8.51
-9.80
-10.98
-12.11
-13.28
-14.60
-16.14
-17.97
-20.05
-22.16
-23.93
-24.89
-24.56
-22.68
-19.30
-14.77
-9.69
-4.69
-0.28
3.24
5.81
7.57
8.68
9.27
9.42
9.13
8.44
7.41
6.15
4.80
3.48
2.26
1.18
0.26
-0.47
-1.00
-1.27
-1.22
-0.80
0.04
1.32
3.00
4.99
7.16
9.33
11.33
12.99
14.16
14.77
14.79
14.27
13.32
12.00
10.36
8.42
6.18
3.75
1.28
-1.01
-3.00
-4.66
-6.10
-7.56
-9.29
-11.45
-14.04
-16.90
-19.72
-22.09
-23.57
-23.77
-22.42
-19.49
-15.23
-10.18
-4.99
-0.31
3.44
6.13
7.92
9.06
9.81
10.25
10.35
10.09
9.48
8.68
7.86
7.14
6.53
5.96
5.34
4.64
4.00
3.59
3.65
4.25
5.32
6.65
7.93
8.90
9.40
9.40
9.02
8.42
7.73
6.97
6.12
5.15
4.03
2.81
1.59
0.45
-0.54
-1.37
-2.09
-2.77
-3.50
-4.35
-5.32
-6.36
-7.35
-8.18
-8.82
-9.38
-10.03
-10.93
-12.14
-13.57
-15.07
-16.48
-17.70
-18.58
-18.92
-18.45
-16.89
-14.13
-10.28
-5.77
-1.17
2.96
6.23
8.50
9.87
10.52
10.70
10.57
10.29
9.91
9.48
8.98
8.40
7.73
7.02
6.33
5.76
5.41
5.34
5.54
5.97
6.61
7.42
8.37
9.41
10.45
11.33
11.88
11.99
11.64
10.91
9.91
8.73
7.39
5.89
4.28
2.69
1.31
0.30
-0.37
-0.82
-1.31
-2.05
-3.07
-4.24
-5.34
-6.22
-6.86
-7.36
-7.91
-8.63
-9.62
-10.93
-12.56
-14.40
-16.17
-17.39
-17.48
-15.96
-12.75
-8.21
-3.10
1.70
5.52
8.12
9.59
10.30
10.56
10.56
10.33
9.85
9.09
8.08
6.91
5.64
4.37
3.19
2.24
1.65
1.55
1.93
2.69
3.64
4.58
5.33
5.75
5.84
5.60
5.14
4.57
3.99
3.44
2.87
2.19
1.31
0.26
-0.87
-1.93
-2.83
-3.59
-4.32
-5.12
-6.05
-7.05
-8.02
-8.94
-9.86
-10.95
-12.32
-14.01
-15.91
-17.87
-19.70
-21.23
-22.27
-22.58
-21.85
-19.81
-16.38
-11.76
-6.50
-1.32
3.12
6.44
8.60
9.87
10.59
11.05
11.31
11.31
10.93
10.14
9.04
7.87
6.81
5.97
5.31
4.75
4.23
3.79
3.59
3.80
4.48
5.57
6.82
7.96
8.80
9.29
9.50
9.59
9.69
9.85
9.97
9.92
9.59
8.96
8.11
7.21
6.43
5.86
5.49
5.28
5.11
4.88
4.52
4.00
3.38
2.73
2.23
2.03
2.20
2.68
3.24
3.59
3.43
2.70
1.56
0.50
0.12
1.07
3.77
8.31
14.37
21.22
27.90
33.40
36.90
37.88
36.27
32.33
26.57
19.60
11.96
4.04
-3.87
-11.55
-18.71
-24.95
-29.74
-32.60
-33.25
-31.87
-29.11
-26.00
-23.62
-22.71
-23.43
-25.34
-27.68
-29.61
-30.63
-30.66
-29.96
-28.97
-28.12
-27.71
-27.93
-28.88
-30.65
-33.24
-36.54
-40.22
-43.74
-46.43
-47.79
-47.60
-46.18
-44.25
-42.67
-42.05
-42.46
-43.27
-43.40
-41.58
-36.80
-28.61
-17.26
-3.71
10.56
23.80
34.30
40.82
42.78
40.44
34.80
27.39
19.83
13.57
9.56
8.23
9.46
12.70
17.18
22.05
26.56
30.11
32.39
33.38
33.27
32.44
31.28
30.04
28.80
27.45
25.79
23.65
21.04
18.17
15.43
13.25
11.93
11.57
12.02
13.03
14.27
15.50
16.55
17.35
17.85
18.06
17.96
17.52
16.69
15.44
13.77
11.81
9.79
8.04
6.79
6.12
5.83
5.55
4.94
3.87
2.42
0.83
-0.78
-2.48
-4.52
-7.05
-10.04
-13.14
-15.87
-17.83
-18.85
-18.99
-18.39
-17.14
-15.21
-12.56
-9.31
-5.71
-2.23
0.66
2.64
3.59
3.65
3.05
2.09
1.03
0.05
-0.70
-1.14
-1.25
-1.08
-0.73
-0.30
0.12
0.54
1.01
1.58
2.27
3.02
3.75
4.43
5.09
5.83
6.72
7.74
8.76
9.58
10.02
9.96
9.40
8.41
7.12
5.66
4.16
2.71
1.32
-0.06
-1.52
-3.21
-5.17
-7.38
-9.69
-11.94
-14.05
-16.00
-17.94
-20.08
-22.59
-25.49
-28.57
-31.38
-33.34
-33.88
-32.60
-29.43
-24.60
-18.63
-12.17
-5.83
-0.14
4.54
8.07
10.50
12.03
12.95
13.55
14.07
14.60
15.18
15.76
16.24
16.49
16.40
15.85
14.88
13.63
12.39
11.45
11.07
11.30
12.00
12.90
13.73
14.27
14.49
14.42
14.16
13.70
12.93
11.64
9.60
6.78
3.36
-0.19
-3.30
-5.45
-6.43
-6.39
-5.82
-5.30
-5.37
-6.27
-7.91
-9.97
-12.08
-13.93
-15.45
-16.73
-17.97
-19.39
-21.09
-23.00
-24.91
-26.44
-27.12
-26.50
-24.30
-20.51
-15.47
-9.79
-4.16
0.81
4.76
7.64
9.61
10.97
11.92
12.52
12.72
12.45
11.68
10.57
9.38
8.39
7.73
7.35
7.07
6.73
6.34
6.12
6.39
7.37
9.04
11.04
12.86
14.05
14.44
14.14
13.47
12.69
11.91
11.06
9.98
8.60
7.02
5.42
4.00
2.90
2.04
1.27
0.35
-0.86
-2.40
-4.14
-5.87
-7.41
-8.65
-9.66
-10.64
-11.83
-13.43
-15.51
-17.97
-20.58
-23.05
-25.04
-26.20
-26.18
-24.73
-21.77
-17.43
-12.17
-6.56
-1.25
3.31
6.86
9.41
11.09
12.11
12.66
12.89
12.89
12.70
12.34
11.78
11.01
10.04
9.00
8.05
7.43
7.30
7.71
8.56
9.66
10.79
11.78
12.55
13.10
13.47
13.64
13.56
13.14
12.31
11.07
9.51
7.79
6.09
4.55
3.22
2.02
0.77
-0.67
-2.39
-4.32
-6.28
-8.07
-9.58
-10.85
-12.03
-13.35
-14.96
-16.94
-19.24
-21.71
-24.12
-26.09
-27.15
-26.85
-24.87
-21.23
-16.30
-10.73
-5.25
-0.39
3.60
6.74
9.19
11.06
12.37
13.10
13.23
12.90
12.29
11.64
11.05
10.55
10.08
9.56
9.01
8.47
8.08
7.94
8.17
8.79
9.77
10.94
12.05
12.83
13.08
12.77
12.05
11.16
10.30
9.55
8.87
8.14
7.28
6.26
5.11
3.86
2.49
0.95
-0.80
-2.71
-4.66
-6.47
-8.04
-9.34
-10.51
-11.69
-13.04
-14.66
-16.54
-18.66
-21.00
-23.51
-26.00
-28.12
-29.33
-29.13
-27.17
-23.48
-18.44
-12.68
-6.90
-1.61
2.84
6.37
9.02
10.92
12.22
13.02
13.38
13.34
12.92
12.16
11.16
10.07
8.99
8.05
7.28
6.75
6.50
6.62
7.17
8.15
9.46
10.92
12.29
13.36
14.01
14.20
13.99
13.54
12.97
12.39
11.84
11.28
10.63
9.79
8.72
7.40
5.92
4.36
2.82
1.36
-0.02
-1.34
-2.63
-3.94
-5.30
-6.74
-8.27
-9.89
-11.55
-13.22
-14.87
-16.51
-18.24
-20.14
-22.28
-24.59
-26.85
-28.68
-29.65
-29.32
-27.44
-23.97
-19.19
-13.57
-7.75
-2.32
2.36
6.14
9.12
11.50
13.43
14.94
15.93
16.28
15.93
15.00
13.71
12.35
11.11
10.05
9.15
8.39
7.85
7.64
7.90
8.67
9.85
11.22
12.50
13.52
14.18
14.50
14.55
14.43
14.17
13.77
13.21
12.45
11.53
10.50
9.44
8.43
7.50
6.64
5.77
4.83
3.77
2.65
1.53
0.48
-0.52
-1.55
-2.74
-4.13
-5.67
-7.24
-8.67
-9.89
-10.92
-11.87
-12.91
-14.16
-15.74
-17.66
-19.87
-22.13
-24.04
-24.98
-24.38
-21.86
-17.47
-11.73
-5.48
0.39
5.27
8.92
11.48
13.26
14.53
15.40
15.85
15.81
15.29
14.39
13.28
12.14
11.09
10.20
9.52
9.08
8.94
9.16
9.77
10.77
12.08
13.56
14.99
16.12
16.72
16.61
15.73
14.14
11.95
9.31
6.39
3.40
0.65
-1.56
-2.98
-3.55
-3.47
-3.12
-3.00
-3.50
-4.75
-6.67
-8.97
-11.32
-13.48
-15.35
-16.99
-18.50
-20.00
-21.58
-23.28
-25.11
-27.03
-28.96
-30.73
-32.06
-32.58
-31.94
-29.82
-26.13
-21.03
-14.94
-8.50
-2.38
2.86
6.97
9.97
12.09
13.59
14.66
15.35
15.61
15.37
14.65
13.55
12.31
11.17
10.32
9.81
9.62
9.61
9.70
9.90
10.27
10.92
11.81
12.79
13.62
14.09
14.10
13.73
13.18
12.60
12.03
11.40
10.62
9.63
8.46
7.20
5.98
4.84
3.77
2.72
1.63
0.47
-0.79
-2.13
-3.55
-5.06
-6.66
-8.32
-9.97
-11.52
-12.89
-14.08
-15.16
-16.33
-17.76
-19.58
-21.80
-24.31
-26.82
-28.94
-30.17
-30.06
-28.29
-24.80
-19.87
-14.04
-8.02
-2.43
2.32
6.10
8.97
11.08
12.57
13.53
14.01
14.09
13.86
13.42
12.84
12.14
11.30
10.35
9.36
8.48
7.88
7.74
8.17
9.18
10.64
12.34
14.00
15.37
16.29
16.75
16.84
16.68
16.35
15.88
15.27
14.55
13.83
13.25
12.89
12.72
12.55
12.07
10.92
8.84
5.72
1.78
-2.54
-6.60
-9.80
-11.78
-12.54
-12.41
-11.86
-11.35
-11.15
-11.36
-12.01
-13.16
-14.88
-17.24
-20.16
-23.45
-26.74
-29.61
-31.63
-32.38
-31.55
-28.99
-24.82
-19.40
-13.30
-7.19
-1.63
3.03
6.67
9.33
11.12
12.17
12.60
12.51
12.02
11.25
10.34
9.42
8.58
7.88
7.29
6.76
6.30
5.97
5.96
6.44
7.48
8.94
10.51
11.85
12.68
12.98
12.92
12.73
12.59
12.53
12.43
12.17
11.67
10.98
10.18
9.37
8.58
7.74
6.74
5.51
4.10
2.65
1.43
0.56
0.04
-0.36
-0.97
-2.06
-3.67
-5.64
-7.64
-9.42
-10.84
-12.01
-13.12
-14.38
-15.95
-17.87
-20.08
-22.43
-24.58
-26.08
-26.41
-25.13
-22.10
-17.54
-11.99
-6.22
-0.92
3.46
6.78
9.16
10.85
12.09
12.97
13.47
13.49
12.97
11.99
10.72
9.43
8.29
7.40
6.71
6.18
5.77
5.57
5.68
6.18
7.02
8.03
8.97
9.61
9.88
9.87
9.75
9.67
9.68
9.65
9.44
8.90
8.07
7.08
6.12
5.29
4.52
3.63
2.45
0.94
-0.74
-2.35
-3.68
-4.69
-5.56
-6.53
-7.80
-9.43
-11.23
-13.00
-14.50
-15.69
-16.62
-17.45
-18.30
-19.29
-20.52
-22.05
-23.91
-26.02
-28.08
-29.54
-29.76
-28.21
-24.76
-19.71
-13.76
-7.74
-2.34
2.09
5.50
8.08
10.02
11.42
12.29
12.60
12.41
11.84
11.06
10.25
9.47
8.73
7.95
7.13
6.30
5.62
5.28
5.40
6.02
6.98
8.11
9.19
10.08
10.73
11.17
11.47
11.67
11.81
11.84
11.69
11.26
10.48
9.38
8.05
6.68
5.43
4.38
3.48
2.58
1.53
0.29
-1.09
-2.50
-3.85
-5.10
-6.27
-7.39
-8.48
-9.57
-10.68
-11.88
-13.26
-14.90
-16.79
-18.89
-21.10
-23.31
-25.35
-26.97
-27.84
-27.55
-25.79
-22.50
-17.96
-12.73
-7.46
-2.67
1.34
4.54
7.09
9.15
10.84
12.14
12.97
13.25
12.97
12.24
11.20
10.02
8.83
7.71
6.72
5.90
5.32
5.03
5.13
5.64
6.53
7.72
9.04
10.30
11.31
11.93
12.11
11.90
11.41
10.80
10.14
9.49
8.82
8.11
7.33
6.45
5.46
4.32
3.02
1.57
0.08
-1.29
-2.41
-3.24
-3.88
-4.54
-5.43
-6.65
-8.15
-9.82
-11.51
-13.19
-14.86
-16.59
-18.42
-20.35
-22.31
-24.26
-26.07
-27.54
-28.33
-28.01
-26.23
-22.82
-18.00
-12.29
-6.37
-0.89
3.76
7.42
10.16
12.14
13.49
14.33
14.71
14.67
14.21
13.40
12.30
11.04
9.74
8.57
7.56
6.78
6.21
5.90
5.92
6.32
7.09
8.12
9.22
10.17
10.83
11.14
11.11
10.86
10.49
10.12
9.80
9.53
9.21
8.66
7.80
6.58
5.18
3.86
2.81
2.07
1.46
0.70
-0.45
-2.03
-3.90
-5.80
-7.58
-9.23
-10.82
-12.48
-14.23
-16.01
-17.76
-19.47
-21.12
-22.67
-23.85
-24.22
-23.27
-20.66
-16.43
-11.05
-5.25
0.17
4.71
8.19
10.72
12.53
13.78
14.55
14.81
14.54
13.75
12.53
10.96
9.19
7.37
5.69
4.39
3.62
3.43
3.76
4.47
5.41
6.44
7.45
8.33
8.92
9.11
8.82
8.15
7.27
6.37
5.63
5.09
4.64
4.14
3.36
2.18
0.57
-1.34
-3.33
-5.18
-6.72
-7.96
-9.05
-10.29
-12.00
-14.32
-17.18
-20.16
-22.60
-23.73
-22.94
-20.03
-15.32
-9.60
-3.83
1.16
4.97
7.65
9.56
11.09
12.47
13.65
14.41
14.48
13.71
12.21
10.24
8.14
6.22
4.67
3.55
2.83
2.49
2.49
2.82
3.49
4.39
5.31
6.02
6.28
6.04
5.42
4.64
3.92
3.31
2.67
1.75
0.29
-1.80
-4.40
-7.20
-9.88
-12.19
-14.06
-15.62
-17.06
-18.62
-20.46
-22.63
-25.06
-27.43
-29.24
-29.83
-28.59
-25.23
-19.92
-13.31
-6.34
0.04
5.22
9.03
11.66
13.46
14.74
15.64
16.12
16.17
15.78
15.04
14.10
13.12
12.19
11.41
10.86
10.59
10.64
10.95
11.42
11.91
12.37
12.77
13.15
13.53
13.84
13.97
13.79
13.23
12.33
11.19
9.95
8.71
7.50
6.28
5.01
3.62
2.08
0.36
-1.60
-3.82
-6.28
-8.82
-11.23
-13.32
-15.02
-16.44
-17.85
-19.55
-21.78
-24.59
-27.85
-31.26
-34.41
-36.81
-37.94
-37.35
-34.75
-30.16
-23.98
-16.91
-9.79
-3.37
1.92
6.01
9.04
11.32
13.05
14.34
15.17
15.49
15.32
14.77
14.06
13.42
12.97
12.74
12.64
12.58
12.56
12.67
13.06
13.85
15.01
16.41
17.76
18.84
19.47
19.64
19.45
19.09
18.69
18.33
17.92
17.33
16.41
15.15
13.63
12.07
10.68
9.53
8.56
7.61
6.55
5.33
4.01
2.69
1.40
0.12
-1.17
-2.48
-3.71
-4.81
-5.80
-6.85
-8.15
-9.85
-11.88
-14.04
-16.09
-17.92
-19.63
-21.51
-23.81
-26.66
-29.94
-33.30
-36.32
-38.54
-39.51
-38.84
-36.22
-31.59
-25.20
-17.72
-10.04
-3.08
2.53
6.58
9.30
11.18
12.64
13.88
14.86
15.42
15.45
15.05
14.41
13.77
13.24
12.79
12.32
11.77
11.25
10.99
11.23
12.10
13.49
15.13
16.70
17.89
18.61
18.88
18.84
18.61
18.24
17.71
16.93
15.84
14.42
12.78
11.12
9.64
8.48
7.62
6.91
6.13
5.11
3.82
2.37
0.93
-0.34
-1.38
-2.25
-3.07
-3.99
-5.16
-6.65
-8.51
-10.63
-12.82
-14.83
-16.46
-17.68
-18.63
-19.63
-20.99
-22.93
-25.49
-28.48
-31.49
-33.97
-35.27
-34.82
-32.27
-27.68
-21.51
-14.58
-7.80
-1.86
2.96
6.73
9.75
12.32
14.55
16.37
17.59
18.07
17.82
17.02
15.93
14.78
13.68
12.66
11.71
10.87
10.25
10.05
10.38
11.22
12.36
13.53
14.47
15.06
15.36
15.48
15.57
15.66
15.65
15.38
14.71
13.60
12.13
10.48
8.88
7.50
6.43
5.64
5.04
4.43
3.69
2.72
1.56
0.28
-1.03
-2.35
-3.70
-5.18
-6.81
-8.52
-10.18
-11.66
-12.91
-13.99
-15.08
-16.35
-17.96
-19.97
-22.35
-24.92
-27.35
-29.17
-29.79
-28.71
-25.68
-20.86
-14.82
-8.37
-2.30
2.83
6.81
9.72
11.80
13.28
14.33
14.98
15.18
14.92
14.16
12.95
11.40
9.70
8.10
6.84
6.08
5.88
6.18
6.87
7.82
8.94
10.13
11.28
12.27
12.93
13.17
12.94
12.33
11.50
10.57
9.64
8.68
7.64
6.46
5.11
3.64
2.17
0.79
-0.46
-1.66
-2.90
-4.32
-5.98
-7.85
-9.80
-11.70
-13.43
-14.97
-16.38
-17.73
-19.14
-20.71
-22.52
-24.58
-26.73
-28.58
-29.57
-29.12
-26.85
-22.74
-17.23
-11.08
-5.13
0.02
4.08
7.13
9.41
11.14
12.42
13.25
13.60
13.48
13.02
12.34
11.58
10.76
9.88
8.88
7.80
6.74
5.88
5.41
5.50
6.18
7.31
8.65
9.91
10.85
11.35
11.47
11.33
11.10
10.88
10.64
10.34
9.86
9.15
8.17
6.97
5.55
3.97
2.28
0.53
-1.17
-2.78
-4.24
-5.56
-6.81
-8.04
-9.33
-10.67
-12.06
-13.49
-14.97
-16.54
-18.21
-19.99
-21.85
-23.79
-25.79
-27.77
-29.47
-30.46
-30.21
-28.25
-24.45
-19.10
-12.90
-6.69
-1.16
3.29
6.68
9.22
11.16
12.60
13.55
13.95
13.80
13.24
12.46
11.68
10.98
10.36
9.74
9.09
8.42
7.87
7.60
7.74
8.30
9.16
10.11
10.89
11.32
11.36
11.14
10.85
10.73
10.85
11.11
11.28
11.11
10.45
9.31
7.88
6.36
4.95
3.73
2.67
1.69
0.69
-0.40
-1.64
-3.06
-4.62
-6.29
-8.02
-9.73
-11.35
-12.84
-14.18
-15.44
-16.77
-18.35
-20.32
-22.67
-25.22
-27.59
-29.30
