1583963761.00
64.000000
-0.00
-0.00
-0.00
-0.00
-0.00
-0.00
-0.00
-0.00
-0.00
-0.00
0.00
0.01
0.01
-0.00
-0.03
-0.05
-0.05
0.00
0.13
0.36
0.66
1.01
1.37
1.72
2.06
2.40
2.79
3.24
3.80
4.42
5.06
5.66
6.20
6.68
7.15
7.68
8.31
9.14
10.09
11.04
11.88
12.56
13.14
13.76
14.65
15.96
17.91
20.32
22.90
25.38
27.58
29.57
31.68
34.32
37.81
42.54
48.15
54.10
59.83
64.97
69.58
74.14
79.34
85.71
93.76
103.00
112.62
121.73
129.77
136.75
143.30
150.75
157.77
166.64
177.95
191.79
206.97
220.57
228.25
225.36
208.53
176.87
132.76
80.05
23.07
-34.94
-92.44
-149.16
-205.23
-260.37
-313.74
-363.87
-409.83
-450.91
-486.50
-515.74
-537.23
-549.22
-549.96
-538.37
-514.21
-478.67
-433.88
-382.45
-327.02
-269.84
-212.63
-156.66
-102.95
-52.37
-5.90
35.58
71.43
101.35
125.50
144.38
158.69
169.15
176.37
180.75
182.57
182.07
179.51
175.23
169.65
163.18
156.15
148.81
141.30
133.69
126.02
118.33
110.69
103.16
95.80
88.68
81.83
75.25
68.95
62.95
57.25
51.86
46.78
42.03
37.59
33.45
29.61
26.07
22.81
19.83
17.11
14.67
12.48
10.54
8.83
7.35
6.07
4.97
4.05
3.27
2.62
2.09
1.65
1.30
1.01
0.79
0.61
0.47
0.37
0.29
0.24
0.20
0.17
0.16
0.17
0.18
0.20
0.23
0.26
0.30
0.34
0.39
0.43
0.48
0.53
0.58
0.63
0.69
0.75
0.81
0.88
0.95
1.03
1.12
1.22
1.33
1.45
1.59
1.74
1.91
2.11
2.32
2.56
2.82
3.11
3.43
3.79
4.17
4.59
5.05
5.55
6.08
6.66
7.28
7.94
8.64
9.39
10.18
11.02
11.90
12.83
13.80
14.84
15.93
17.08
18.30
19.56
20.85
22.12
23.29
24.29
24.97
25.22
24.91
23.91
22.17
19.63
16.34
12.34
7.80
2.91
-2.11
-7.01
-11.58
-15.59
-18.91
-21.40
-23.04
-23.82
-23.83
-23.20
-22.07
-20.61
-18.94
-17.19
-15.39
-13.55
-11.65
-9.66
-7.61
-5.48
-3.30
-1.07
1.20
3.52
5.93
8.51
11.15
13.81
16.41
18.86
21.10
23.16
25.11
27.14
29.48
32.03
34.71
37.39
39.89
42.10
43.96
45.60
47.33
49.57
52.19
55.04
57.85
60.23
61.85
62.53
62.41
61.92
61.71
61.64
61.51
60.77
58.61
54.03
46.07
33.76
15.93
-4.01
-24.75
-45.46
-65.92
-86.60
-108.52
-132.97
-160.87
-191.96
-224.22
-254.54
-278.36
-290.97
-288.84
-270.65
-237.71
-193.61
-143.25
-91.67
-43.58
-2.11
31.25
56.38
73.99
85.14
90.98
92.59
91.16
87.69
83.33
79.08
75.55
72.87
70.73
68.67
66.36
63.71
60.72
57.52
54.13
50.37
45.83
39.93
32.23
22.56
11.27
-0.85
-12.74
-23.43
-32.40
-39.85
-46.54
-53.51
-61.71
-71.71
-83.48
-96.28
-108.54
-117.83
-121.28
-116.27
-101.43
-77.35
-46.80
-13.90
17.08
42.94
62.32
75.39
83.22
86.84
86.89
83.67
77.60
69.59
61.06
53.55
48.17
45.29
44.37
44.40
44.33
43.55
42.09
40.39
38.94
37.82
36.48
33.87
28.93
21.14
10.87
-0.61
-11.65
-20.83
-27.62
-32.52
-36.83
-42.11
-49.61
-59.78
-72.11
-85.06
-96.25
-102.88
-102.28
-92.77
-74.21
-48.25
-17.98
12.98
41.45
65.40
84.09
97.63
106.44
110.78
110.76
106.66
99.23
89.85
80.26
71.95
65.73
61.39
57.98
54.29
49.46
43.36
36.58
30.01
24.26
19.35
14.54
8.83
1.35
-8.07
-18.75
-29.44
-38.83
-46.10
-51.29
-55.17
-58.98
-63.96
-70.91
-79.98
-90.47
-100.75
-108.49
-111.01
-106.06
-92.66
-71.60
-45.37
-17.47
8.73
30.93
48.35
61.57
71.75
79.90
86.43
91.13
93.58
93.59
91.47
87.90
83.68
79.14
73.93
66.97
56.90
42.61
23.78
1.03
-24.40
-51.26
-78.74
-106.37
-133.39
-157.99
-177.14
-187.28
-185.79
-172.48
-150.25
-124.32
-100.42
-82.80
-73.03
-69.96
-70.77
-72.11
-70.91
-64.67
-51.61
-31.11
-4.27
25.79
54.41
76.68
89.09
90.67
83.14
69.90
54.69
40.33
28.34
19.17
12.65
8.47
6.22
5.43
5.49
5.85
6.23
6.80
8.12
10.92
15.44
20.93
25.42
26.12
20.36
6.90
-13.26
-36.77
-58.89
-74.99
-82.14
-79.89
-70.22
-56.56
-42.71
-31.81
-25.73
-24.83
-27.84
-32.13
-34.14
-30.34
-18.38
2.06
29.04
58.86
87.38
111.37
129.34
141.63
149.77
155.44
159.67
162.50
163.26
161.14
155.88
148.03
138.87
129.96
122.60
117.37
114.23
112.78
112.68
114.05
117.17
122.21
128.84
136.22
143.29
149.27
153.89
157.42
160.35
163.22
166.56
171.02
177.44
186.54
198.41
211.96
224.84
233.97
236.58
231.06
217.47
197.21
172.35
144.81
115.98
86.75
57.62
28.96
0.94
-26.56
-54.16
-82.83
-113.68
-147.67
-185.21
-226.02
-268.93
-312.02
-352.96
-389.70
-420.96
-446.43
-466.52
-481.61
-491.40
-494.63
-489.36
-473.77
-447.01
-409.86
-364.77
-315.37
-265.79
-219.77
-180.05
-148.09
-124.22
-107.90
-98.13
-93.45
-91.84
-90.61
-86.64
-77.15
-60.63
-37.53
-10.12
18.35
44.88
67.63
86.02
100.35
110.97
117.91
120.88
119.76
115.11
108.34
101.47
96.53
94.85
96.57
100.62
105.14
108.23
108.63
106.19
101.82
96.89
92.61
89.48
87.23
85.21
82.87
80.20
77.63
75.72
74.75
74.44
74.05
72.75
69.97
65.57
59.83
53.32
46.81
41.27
37.84
37.63
41.26
48.32
57.24
65.68
71.41
73.27
71.65
68.29
65.22
63.62
63.12
61.90
57.65
48.64
34.47
15.97
-5.45
-28.77
-53.63
-80.17
-108.19
-136.39
-162.17
-182.22
-193.70
-195.41
-188.47
-176.06
-162.51
-151.77
-146.25
-146.17
-149.61
-153.37
-153.96
-148.64
-136.06
-116.38
-91.05
-62.35
-32.91
-5.42
17.86
35.31
46.26
51.03
50.71
46.66
39.87
30.50
18.03
1.84
-17.91
-39.79
-61.07
-78.53
-89.49
-92.55
-87.84
-76.53
-60.24
-40.46
-18.36
5.02
28.55
50.85
70.49
86.19
97.07
102.81
103.63
100.31
94.04
86.13
77.56
68.51
58.16
45.01
27.67
5.79
-19.31
-44.81
-67.18
-83.40
-91.90
-92.80
-87.47
-77.73
-65.11
-50.62
-34.77
-17.80
0.22
19.33
39.60
60.88
82.45
102.91
120.50
133.63
141.57
144.73
144.38
142.02
138.71
134.62
129.15
121.36
110.63
97.18
82.37
68.57
58.58
54.84
58.57
69.29
84.89
102.41
119.04
132.95
143.44
150.60
154.39
154.09
148.32
135.59
115.40
89.07
59.99
32.90
12.57
2.15
2.11
10.10
21.79
32.40
38.22
37.64
31.34
21.62
11.21
2.14
-5.02
-11.13
-17.74
-26.10
-36.42
-47.59
-57.67
-64.72
-67.58
-66.18
-61.50
-55.09
-48.87
-44.80
-44.80
-50.22
-61.35
-76.99
-94.56
-110.82
-122.93
-129.27
-129.81
-125.71
-118.61
-110.13
-101.57
-94.08
-88.81
-86.73
-88.32
-93.05
-99.30
-104.64
-106.49
-102.94
-93.28
-78.18
-59.39
-39.20
-19.74
-2.51
11.89
23.62
33.18
40.99
47.24
51.86
54.94
56.80
58.11
59.46
61.05
62.46
62.78
61.17
57.35
51.69
45.17
38.81
33.22
28.41
23.81
18.75
12.88
6.26
-0.56
-6.85
-12.00
-15.75
-18.28
-20.02
-21.50
-23.18
-25.29
-27.85
-30.43
-32.17
-31.79
-27.81
-19.12
-5.49
12.13
31.68
50.65
66.74
78.49
85.46
88.06
87.04
83.24
77.39
70.19
62.44
55.15
49.31
45.65
44.32
44.62
45.19
44.30
40.58
33.56
23.95
13.36
3.74
-3.39
-7.39
-8.58
-7.89
-6.45
-5.18
-4.59
-4.81
-5.73
-7.10
-8.72
-10.57
-12.77
-15.56
-19.13
-23.45
-28.18
-32.68
-36.30
-38.52
-39.08
-37.93
-35.16
-30.89
-25.32
-18.87
-12.18
-6.09
-1.38
1.48
2.50
2.08
0.90
-0.47
-1.72
-2.86
-4.00
-5.26
-6.55
-7.72
-8.60
-9.19
-9.59
-9.94
-10.23
-10.39
-10.31
-10.00
-9.65
-9.63
-10.17
-11.31
-12.76
-14.09
-14.86
-14.89
-14.32
-13.54
-13.04
-13.21
-14.24
-16.05
-18.27
-20.41
-21.93
-22.35
-21.40
-18.95
-15.11
-10.17
-4.67
0.71
5.22
8.22
9.38
8.79
6.94
4.48
2.10
0.20
-1.09
-1.91
-2.56
-3.35
-4.45
-5.92
-7.66
-9.51
-11.31
-12.96
-14.49
-15.99
-17.66
-19.64
-22.02
-24.78
-27.79
-30.91
-34.02
-37.12
-40.37
-44.01
-48.21
-52.92
-57.87
-62.54
-66.37
-68.93
-69.95
-69.42
-67.45
-64.29
-60.30
-55.93
-51.76
-48.37
-46.21
-45.53
-46.34
-48.56
-52.10
-56.90
-62.87
-69.73
-76.94
-83.77
-89.44
-93.40
-95.36
-95.34
-93.65
-90.78
-87.36
-84.09
-81.46
-79.60
-78.18
-76.58
-74.24
-71.07
-67.51
-64.40
-62.52
-62.18
-63.05
-64.22
-64.50
-62.67
-57.66
-48.81
-35.87
-19.27
-0.11
19.97
39.15
55.77
68.79
77.90
83.45
86.25
87.25
87.28
86.73
85.64
83.76
80.91
77.19
73.06
69.12
65.77
62.92
60.04
56.34
51.25
44.67
36.99
28.94
21.17
14.04
7.51
1.24
-5.30
-12.68
-21.41
-31.77
-43.47
-55.38
-65.50
-71.32
-70.56
-62.05
-46.29
-25.41
-2.51
19.31
37.71
51.56
60.72
65.71
67.19
65.85
62.32
57.20
51.06
44.37
37.52
30.82
24.62
19.32
15.37
13.02
12.18
12.45
13.02
13.04
11.78
8.81
4.13
-1.99
-8.99
-16.34
-23.63
-30.73
-37.88
-45.61
-54.45
-64.51
-75.05
-84.21
-89.34
-87.66
-77.27
-58.07
-32.00
-2.52
26.35
51.25
70.18
82.69
89.38
91.34
89.63
85.13
78.60
70.83
62.65
54.86
47.99
42.22
37.41
33.31
29.76
26.79
24.57
23.32
23.05
23.45
23.83
23.22
20.72
15.74
8.36
-0.68
-10.11
-18.60
-25.18
-29.73
-32.96
-36.28
-41.35
-49.50
-61.31
-76.10
-91.80
-105.19
-112.50
-110.54
-97.74
-74.79
-44.57
-11.29
20.84
48.70
70.73
86.77
97.38
103.19
104.60
101.92
95.68
86.83
76.69
66.65
57.81
50.67
45.18
40.93
37.52
34.75
32.75
31.76
31.79
32.42
32.70
31.42
27.58
20.84
11.75
1.64
-7.90
-15.57
-20.86
-24.23
-26.89
-30.42
-36.34
-45.66
-58.57
-74.04
-89.69
-102.01
-107.08
-101.74
-84.82
-57.72
-24.21
10.76
42.55
68.02
86.01
96.87
101.72
101.66
97.50
89.90
79.82
68.55
57.65
48.45
41.68
37.29
34.60
32.75
31.13
29.60
28.46
28.15
28.83
30.13
31.17
30.90
28.55
23.99
17.71
10.66
3.70
-2.68
-8.54
-14.38
-20.96
-29.16
-39.84
-53.54
-69.99
-87.59
-103.22
-112.77
-112.29
-99.58
-75.19
-42.49
-6.59
27.37
55.71
76.87
91.06
99.30
102.55
101.40
96.24
87.84
77.52
67.03
58.06
51.64
47.92
46.31
45.91
46.01
46.34
46.98
48.03
49.36
50.34
49.99
47.29
41.60
33.00
22.29
10.83
-0.01
-9.30
-16.90
-23.48
-30.29
-38.69
-49.67
-63.44
-79.10
-94.50
-106.50
-111.66
-107.22
-92.07
-67.33
-36.14
-2.77
28.63
55.08
75.15
88.74
96.46
99.05
97.23
91.78
83.79
74.76
66.27
59.66
55.55
53.75
53.48
53.76
53.97
54.00
54.24
55.09
56.48
57.61
57.01
53.11
44.97
32.86
18.26
3.38
-9.70
-19.83
-27.11
-32.72
-38.37
-45.63
-55.52
-68.16
-82.56
-96.59
-107.19
-111.01
-105.49
-89.85
-65.71
-36.75
-7.52
17.98
37.46
50.48
57.92
61.00
60.55
56.95
50.52
42.06
32.95
24.90
19.32
16.82
17.09
19.19
22.21
25.59
29.33
33.69
38.77
44.08
48.54
50.74
49.49
44.36
35.84
25.21
14.01
3.42
-6.14
-15.07
-24.29
-34.78
-47.05
-60.78
-74.56
-86.06
-92.42
-91.05
-80.54
-61.20
-35.32
-6.50
21.41
45.27
63.42
75.60
82.42
84.64
82.90
77.65
69.47
59.28
48.28
37.61
28.08
19.95
13.08
7.28
2.47
-1.22
-3.67
-5.03
-5.81
-6.78
-8.61
-11.52
-15.16
-18.78
-21.64
-23.45
-24.56
-25.97
-28.91
-34.51
-43.38
-55.38
-69.51
-83.88
-95.93
-102.86
-102.30
-93.07
-75.60
-51.93
-25.12
1.60
25.66
45.52
60.67
71.20
77.54
80.23
79.88
77.17
72.91
67.79
62.45
57.33
52.77
49.08
46.47
45.12
45.00
45.93
47.57
49.47
51.22
52.43
52.80
52.12
50.30
47.47
43.95
40.12
36.22
32.21
27.65
21.89
14.35
4.89
-5.89
-16.80
-26.37
-33.44
-37.66
-39.58
-40.45
-41.68
-44.29
-48.67
-54.74
-62.31
-71.49
-82.78
-96.78
-113.69
-132.91
-152.97
-171.97
-188.18
-200.55
-209.02
-214.23
-217.12
-218.36
-218.07
-215.85
-211.13
-203.58
-193.32
-181.05
-167.76
-154.47
-141.94
-130.49
-119.93
-109.53
-98.21
-84.69
-67.93
-47.37
-23.17
3.88
32.69
62.24
91.81
121.05
149.64
177.08
202.56
225.12
243.92
258.50
268.78
274.88
276.81
274.35
267.19
255.15
238.55
218.25
195.58
171.91
148.39
125.76
104.37
84.36
65.75
48.61
32.99
19.00
6.73
-3.72
-12.35
-19.42
-25.47
-31.35
-37.97
-46.06
-55.87
-67.11
-78.87
-89.78
-98.21
-102.58
-101.70
-95.03
-82.91
-66.57
-47.89
-28.99
-11.80
2.32
12.75
19.57
23.34
24.83
24.68
23.24
20.63
16.82
11.90
6.28
0.59
-4.40
-8.04
-9.99
-10.23
-9.02
-6.69
-3.59
-0.04
3.57
6.80
9.12
10.06
9.31
6.81
2.74
-2.69
-9.27
-16.97
-25.68
-34.96
-43.73
-50.31
-52.73
-49.41
-39.81
-24.79
-6.45
12.46
29.35
42.44
51.06
55.48
56.55
55.16
52.01
47.48
41.76
35.13
28.01
21.04
14.81
9.79
6.07
3.52
1.86
0.81
0.21
-0.08
-0.25
-0.59
-1.44
-3.02
-5.35
-8.28
-11.59
-15.18
-19.12
-23.70
-29.20
-35.71
-42.80
-49.45
-54.05
-54.81
-50.24
-39.83
-24.37
-5.84
13.03
29.59
41.95
49.36
52.10
51.11
47.40
41.82
34.96
27.29
19.31
11.62
4.82
-0.63
-4.54
-7.00
-8.34
-8.95
-9.21
-9.40
-9.74
-10.41
-11.56
-13.35
-15.88
-19.22
-23.33
-28.08
-33.26
-38.66
-44.24
-50.10
-56.35
-62.83
-68.86
-73.07
-73.76
-69.45
-59.58
-44.87
-27.28
-9.46
6.01
17.31
23.70
25.39
23.24
18.29
11.59
4.12
-3.13
-9.13
-12.89
-13.66
-11.20
-5.90
1.20
8.70
15.21
19.70
21.76
21.61
19.78
16.91
13.44
9.60
5.49
1.23
-2.96
-6.79
-10.06
-12.82
-15.34
-17.94
-20.69
-23.12
-24.29
-23.01
-18.43
-10.48
-0.06
11.22
21.50
29.38
34.22
36.28
36.38
35.48
34.24
32.91
31.36
29.27
26.36
22.56
18.00
13.01
8.00
3.38
-0.55
-3.67
-6.01
-7.73
-9.03
-10.04
-10.83
-11.43
-11.95
-12.61
-13.77
-15.77
-18.84
-23.00
-28.09
-33.78
-39.59
-44.77
-48.31
-48.97
-45.68
-38.01
-26.47
-12.60
1.49
13.79
22.95
28.55
30.99
31.07
29.57
27.07
23.91
20.35
16.62
12.99
9.72
6.93
4.71
3.01
1.76
0.86
0.17
-0.45
-1.15
-2.02
-3.07
-4.23
-5.32
-6.24
-6.95
-7.59
-8.47
-10.02
-12.70
-16.87
-22.59
-29.46
-36.56
-42.59
-46.14
-46.15
-42.24
-34.87
-25.20
-14.62
-4.32
5.11
13.68
21.75
29.68
37.47
44.59
50.16
53.26
53.33
50.40
45.19
38.87
32.63
27.36
23.50
21.00
19.57
18.76
18.07
16.99
14.98
11.54
6.35
-0.64
-9.11
-18.49
-28.15
-37.54
-46.27
-54.11
-60.74
-65.73
-68.52
-68.53
-65.49
-59.57
-51.47
-42.37
-33.62
-26.50
-22.01
-20.77
-22.96
-28.35
-36.31
-45.86
-55.80
-64.91
-72.25
-77.34
-80.29
-81.63
-82.13
-82.47
-83.07
-84.13
-85.66
-87.65
-90.16
-93.32
-97.29
-102.20
-108.12
-114.88
-121.95
-128.21
-132.01
-131.35
-124.37
-110.03
-88.43
-60.92
-29.59
3.28
35.81
66.74
95.29
120.90
142.99
160.91
174.17
182.60
186.48
186.54
183.71
178.81
172.27
164.08
153.83
141.06
125.67
108.15
89.54
71.21
54.41
39.95
28.16
19.01
12.29
7.80
5.24
4.13
3.66
2.88
0.91
-2.66
-7.58
-13.01
-17.65
-20.22
-19.70
-15.66
-8.32
1.46
12.38
22.98
32.00
38.54
42.30
43.42
42.37
39.67
35.79
31.08
25.84
20.40
15.13
10.39
6.49
3.54
1.49
0.09
-0.91
-1.77
-2.64
-3.60
-4.64
-5.77
-7.03
-8.51
-10.34
-12.70
-15.80
-19.86
-24.99
-31.03
-37.43
-43.24
-47.20
-48.14
-45.33
-38.76
-29.23
-18.11
-6.96
2.82
10.29
15.01
16.97
16.50
14.13
10.47
6.13
1.67
-2.52
-6.20
-9.22
-11.57
-13.29
-14.43
-15.11
-15.45
-15.57
-15.55
-15.43
-15.32
-15.39
-15.93
-17.31
-19.84
-23.71
-28.96
-35.34
-42.25
-48.75
-53.58
-55.45
-53.38
-47.07
-36.96
-24.28
-10.59
2.59
14.14
23.39
30.05
34.07
35.43
34.22
30.76
25.65
19.78
14.08
9.30
5.76
3.24
1.22
-0.92
-3.50
-6.51
-9.58
-12.28
-14.28
-15.55
-16.26
-16.75
-17.38
-18.51
-20.52
-23.79
-28.50
-34.44
-40.78
-46.06
-48.51
-46.58
-39.47
-27.54
-12.21
4.36
19.98
33.02
42.65
48.88
52.25
53.40
52.78
50.60
46.89
41.71
35.38
28.47
21.69
15.65
10.60
6.42
2.74
-0.82
-4.43
-7.97
-11.21
-13.96
-16.33
-18.69
-21.54
-25.25
-29.94
-35.43
-41.45
-47.64
-53.56
-58.59
-61.84
-62.19
-58.67
-50.82
-39.01
-24.43
-8.76
6.37
19.68
30.56
38.85
44.69
48.25
49.73
49.28
47.19
43.91
40.05
36.26
33.16
31.09
30.09
29.86
29.79
29.23
27.61
24.66
20.45
15.37
9.93
4.61
-0.32
-4.91
-9.52
-14.67
-20.87
-28.25
-36.36
-44.08
-49.91
-52.37
-50.52
-44.28
-34.42
-22.27
-9.26
3.40
14.88
24.62
32.20
37.16
39.05
37.59
32.87
25.57
17.02
9.07
3.76
2.82
7.16
16.61
29.91
45.25
60.77
75.21
88.07
99.42
109.47
118.08
124.69
128.51
128.89
125.74
119.62
111.50
102.36
92.81
82.92
72.36
60.63
47.33
32.30
15.55
-2.68
-21.91
-41.33
-59.71
-75.72
-88.36
-97.39
-103.58
-108.37
-113.24
-118.95
-125.06
-130.11
-132.20
-129.78
-122.31
-110.34
-95.29
-78.83
-62.38
-46.90
-32.82
-20.31
-9.49
-0.54
6.38
11.17
13.99
15.12
14.91
13.75
12.03
10.34
9.46
10.29
13.49
19.20
26.92
35.67
44.35
52.11
58.55
63.53
67.01
68.90
69.15
67.97
65.92
63.97
63.20
64.43
67.82
72.73
77.70
80.78
80.13
74.63
64.45
51.08
36.77
23.59
12.47
2.81
-7.12
-19.23
-34.54
-52.71
-72.16
-90.84
-106.93
-119.18
-126.91
-129.72
-127.44
-120.28
-109.14
-95.68
-82.01
-70.05
-61.07
-55.35
-52.45
-51.66
-52.37
-54.21
-56.91
-60.02
-62.85
-64.57
-64.50
-62.39
-58.46
-53.34
-47.76
-42.36
-37.62
-33.79
-31.03
-29.37
-28.74
-28.99
-29.97
-31.62
-34.04
-37.52
-42.32
-48.33
-54.85
-60.46
-63.21
-61.24
-53.40
-39.72
-21.63
-1.50
18.03
34.74
47.31
55.37
59.18
59.27
56.16
50.39
42.60
33.82
25.36
18.64
14.84
14.47
17.21
21.98
27.22
31.39
33.34
32.68
29.71
25.23
20.13
15.02
10.09
5.11
-0.37
-6.81
-14.48
-23.35
-32.88
-42.02
-49.15
-52.36
-50.00
-41.17
-26.24
-6.87
14.39
34.67
51.58
63.60
70.21
71.71
68.94
62.95
54.82
45.60
36.17
27.34
19.76
13.90
10.02
8.11
7.86
8.67
9.76
10.30
9.61
7.30
3.41
-1.67
-7.33
-13.02
-18.47
-23.80
-29.54
-36.36
-44.81
-54.84
-65.61
-75.52
-82.51
-84.56
-80.22
-68.89
-51.09
-28.43
-3.30
21.48
43.38
60.85
73.73
83.34
91.72
100.66
110.75
121.05
129.59
134.33
133.94
128.37
118.59
106.27
93.38
81.89
73.47
69.16
68.97
71.77
75.54
78.00
77.38
72.75
64.14
52.21
37.96
22.74
8.21
-3.88
-12.12
-16.04
-16.27
-14.21
-11.31
-8.23
-4.66
0.32
7.43
16.42
25.84
33.42
36.87
34.76
26.95
14.50
-0.69
-16.47
-31.00
-43.04
-52.12
-58.41
-62.51
-65.33
-67.82
-70.82
-74.83
-79.83
-85.32
-90.54
-94.91
-98.47
-102.02
-106.87
-114.10
-123.79
-134.46
-143.19
-146.30
-140.62
-124.56
-98.70
-65.71
-29.59
5.39
35.61
58.80
74.09
81.81
83.08
79.40
72.36
63.50
54.19
45.62
38.64
33.75
30.95
29.86
29.87
30.28
30.50
30.21
29.28
27.76
25.73
23.26
20.31
16.76
12.33
6.73
-0.39
-9.28
-20.09
-32.62
-46.18
-59.44
-70.42
-76.85
-76.75
-69.18
-54.67
-35.17
-13.55
7.18
24.67
37.58
45.50
48.77
48.06
44.25
38.28
31.17
23.91
17.43
12.43
9.35
8.22
8.68
10.00
11.32
11.90
11.39
9.91
7.91
5.82
3.80
1.58
-1.34
-5.47
-11.10
-18.35
-27.10
-37.12
-47.85
-58.24
-66.66
-71.19
-70.19
-62.96
-50.13
-33.54
-15.66
1.14
15.21
25.73
32.47
35.36
34.32
29.26
20.36
8.35
-5.49
-19.48
-32.04
-42.13
-49.57
-54.99
-59.60
-64.64
-71.01
-79.07
-88.70
-99.68
-111.94
-125.76
-141.60
-159.83
-180.42
-203.04
-227.20
-252.50
-278.54
-304.56
-328.95
-349.14
-362.05
-364.97
-356.50
-336.97
-308.16
-272.37
-231.62
-187.14
-139.37
-88.29
-33.52
26.09
92.86
169.99
259.91
361.80
469.63
572.03
654.98
706.00
718.36
693.13
638.52
566.97
491.74
424.20
372.44
340.34
326.97
326.41
328.88
323.50
302.08
262.21
208.11
148.54
93.11
48.85
18.53
1.11
-6.41
-7.26
-4.06
1.05
5.98
8.67
7.55
2.17
-6.53
-16.62
-25.82
-32.44
-35.85
-36.51
-35.56
-34.01
-32.27
-29.96
-26.16
-20.08
-11.57
-1.40
8.83
17.20
22.14
22.94
19.98
14.61
8.73
4.12
1.97
2.51
5.00
7.97
9.80
9.23
5.83
0.03
-7.23
-15.14
-23.54
-32.93
-44.02
-57.06
-71.27
-84.97
-96.25
-103.79
-107.46
-108.19
-107.35
-106.00
-104.49
-102.59
-100.02
-96.88
-93.74
-91.31
-89.90
-89.07
-87.70
-84.44
-78.44
-69.70
-59.21
-48.63
-39.76
-34.12
-32.52
-35.03
-41.06
-49.37
-58.30
-66.05
-71.09
-72.54
-70.53
-66.01
-60.39
-54.78
-49.46
-43.81
-36.60
-26.83
-14.24
0.48
15.94
30.62
43.29
53.08
59.28
61.14
57.88
49.10
35.19
17.65
-1.14
-18.60
-32.63
-42.15
-47.22
-48.74
-48.00
-46.28
-44.58
-43.63
-43.85
-45.49
-48.68
-53.54
-60.20
-68.75
-79.17
-91.37
-105.08
-119.91
-135.19
-149.77
-161.85
-169.05
-168.86
-159.29
-139.75
-111.41
-77.00
-40.13
-4.35
27.60
54.07
74.24
87.81
94.65
94.91
89.21
78.85
65.75
52.16
40.07
30.75
24.50
20.77
18.59
17.03
15.54
14.03
12.74
12.01
12.03
12.69
13.53
13.62
11.64
6.03
-4.60
-20.83
-41.92
-65.51
-87.93
-105.08
-113.56
-111.69
-100.00
-80.94
-58.00
-34.63
-13.29
4.78
19.32
30.52
38.54
43.39
45.17
44.28
41.47
37.63
33.48
29.25
24.77
19.72
14.02
7.92
1.95
-3.44
-8.17
-12.56
-17.26
-22.88
-29.75
-37.86
-46.95
-56.80
-67.49
-79.32
-92.58
-106.90
-120.89
-132.04
-137.27
-133.87
-120.55
-98.03
-68.99
-37.26
-6.84
19.15
39.00
52.33
59.75
62.22
60.61
55.58
47.62
37.34
25.62
13.69
2.78
-6.26
-13.32
-19.09
-24.61
-30.73
-37.47
-43.86
-48.29
-49.16
-45.64
-38.02
-27.78
-17.12
-8.53
-4.21
-5.67
-13.12
-25.16
-38.61
-49.02
-51.72
-43.24
-22.55
8.59
46.07
84.77
119.90
148.17
168.00
179.29
182.78
179.50
170.52
156.91
139.93
121.06
102.07
84.79
70.90
61.50
56.91
56.55
59.13
63.01
66.62
68.83
68.96
66.78
62.19
55.13
45.52
33.33
18.69
2.01
-15.97
-33.98
-50.22
-62.39
-68.10
-65.46
-53.81
-34.12
-8.94
18.25
43.96
65.56
81.73
92.37
98.12
99.84
98.24
93.81
86.96
78.19
68.24
57.99
48.26
39.64
32.32
26.10
20.57
15.34
10.27
5.59
1.69
-1.08
-2.64
-3.40
-4.13
-5.75
-9.17
-15.06
-23.82
-35.35
-48.79
-62.25
-72.86
-77.19
-72.36
-57.09
-32.52
-2.02
29.82
58.59
81.36
97.09
106.28
110.04
109.31
104.59
96.12
84.37
70.36
55.51
41.24
28.45
17.23
6.99
-3.06
-13.41
-23.91
-33.77
-41.84
-47.15
-49.40
-49.13
-47.67
-46.82
-48.32
-53.35
-62.10
-73.61
-85.82
-95.90
-100.90
-98.53
-87.79
-69.35
-45.27
-18.52
7.91
31.61
51.03
65.48
74.74
78.83
77.99
72.69
63.82
52.68
40.85
29.80
20.56
13.48
8.21
3.92
-0.18
-4.59
-9.22
-13.50
-16.73
-18.54
-19.20
-19.66
-21.28
-25.45
-33.06
-44.08
-57.31
-70.40
-80.23
-83.64
-78.45
-64.13
-42.16
-15.60
11.83
36.82
57.31
72.61
83.03
89.17
91.43
89.81
84.21
74.94
62.93
49.77
37.25
26.73
18.79
13.08
8.68
4.67
0.60
-3.39
-6.78
-9.17
-10.68
-12.01
-14.26
-18.52
-25.59
-35.77
-48.81
-63.85
-79.21
-92.41
-100.45
-100.50
-90.90
-71.87
-45.65
-15.89
13.50
39.43
60.21
75.44
85.48
90.86
91.97
89.13
82.78
73.66
62.83
51.52
40.89
31.85
24.83
19.75
16.09
13.08
10.09
6.83
3.45
0.36
-2.13
-4.09
-6.07
-8.95
-13.67
-20.92
-30.79
-42.73
-55.31
-66.37
-73.34
-73.78
-66.17
-50.51
-28.46
-3.03
22.21
44.14
60.72
71.18
75.84
75.57
71.33
63.99
54.40
43.49
32.49
22.67
15.14
10.43
8.34
7.97
8.14
7.80
6.39
3.97
0.94
-2.21
-5.30
-8.52
-12.37
-17.46
-24.26
-33.06
-43.82
-56.13
-68.99
-80.75
-89.16
-91.87
-87.05
-74.21
-54.56
-30.85
-6.60
14.94
31.66
42.87
49.02
51.09
49.93
46.02
39.61
31.07
21.26
11.52
3.41
-1.81
-3.55
-2.15
1.27
5.24
8.44
10.02
9.79
8.11
5.59
2.75
-0.14
-3.20
-6.83
-11.55
-17.83
-25.92
-35.63
-46.13
-55.91
-62.83
-64.62
-59.53
-47.09
-28.37
-5.89
17.13
37.59
53.34
63.44
67.93
67.46
62.84
54.97
44.88
33.83
23.24
14.45
8.30
5.05
4.22
4.88
6.04
6.89
6.97
6.15
4.54
2.33
-0.29
-3.21
-6.48
-10.32
-15.13
-21.34
-29.27
-38.79
-49.14
-58.77
-65.60
-67.54
-63.16
-52.28
-36.15
-17.14
1.98
18.76
31.61
39.88
43.55
42.91
38.30
30.15
19.27
6.89
-5.27
-15.32
-21.79
-23.96
-22.16
-17.61
-11.95
-6.67
-2.55
0.45
3.08
6.22
10.38
15.31
20.01
23.01
22.83
18.45
9.62
-2.99
-17.76
-32.24
-43.56
-48.99
-46.69
-36.35
-19.43
1.26
22.38
41.03
55.53
65.48
71.35
73.82
73.27
69.65
62.77
52.82
40.68
27.87
16.19
7.16
1.51
-0.90
-0.93
0.30
1.78
2.79
2.90
1.85
-0.61
-4.63
-10.19
-17.00
-24.63
-32.76
-41.31
-50.47
-60.25
-70.02
-78.27
-82.77
-81.39
-72.94
-57.84
-38.12
-16.79
3.10
19.28
30.64
37.16
39.41
38.24
34.47
28.84
22.09
14.97
8.17
2.28
-2.37
-5.75
-8.08
-9.77
-11.27
-12.92
-14.85
-16.98
-19.10
-21.00
-22.65
-24.24
-26.20
-29.03
-33.29
-39.45
-47.76
-58.05
-69.55
-80.67
-89.09
-92.32
-88.37
-76.59
-58.05
-35.34
-11.77
9.60
26.77
38.97
46.35
49.41
48.54
43.97
36.05
25.50
13.64
2.07
-7.70
-14.71
-18.90
-20.99
-22.16
-23.64
-26.21
-30.03
-34.67
-39.46
-43.88
-47.86
-51.89
-56.83
-63.65
-73.11
-85.48
-100.34
-116.37
-131.41
-142.66
-147.37
-143.65
-131.21
-111.68
-88.20
-64.46
-43.59
-27.49
-16.67
-10.81
-9.33
-11.79
-17.91
-27.06
-37.98
-48.78
-57.33
-62.03
-62.40
-59.27
-54.38
-49.69
-46.60
-45.61
-46.35
-48.06
-50.12
-52.31
-54.93
-58.52
-63.59
-70.34
-78.57
-87.45
-95.49
-100.57
-100.27
-92.42
-75.75
-50.31
-17.45
20.63
61.53
103.25
144.37
183.87
220.81
254.11
282.53
305.08
321.26
331.22
335.62
335.21
330.55
321.69
308.35
290.23
267.47
240.95
212.25
183.34
156.04
131.64
110.58
92.57
76.77
62.24
48.27
34.57
21.31
8.96
-2.08
-11.73
-20.42
-29.08
-38.86
-50.78
-65.23
-81.70
-98.57
-113.19
-122.39
-123.25
-114.07
-95.02
-68.34
-37.73
-7.38
19.22
39.98
54.31
62.69
66.08
65.37
61.35
54.78
46.54
37.66
29.11
21.60
15.50
10.84
7.54
5.50
4.66
4.93
6.08
7.72
9.27
10.17
10.03
8.72
6.42
3.52
0.31
-3.11
-7.01
-11.85
-18.03
-25.60
-34.16
-43.02
-51.48
-59.12
-65.98
-72.44
-79.15
-86.75
-95.62
-105.54
-115.41
-123.15
-126.02
-121.39
-107.69
-85.24
-56.40
-24.94
5.03
30.29
49.13
61.35
67.69
69.14
66.51
60.43
51.59
41.01
30.01
19.99
11.98
6.40
2.99
1.19
0.43
0.49
1.41
3.32
6.08
9.09
11.38
11.98
10.23
6.11
0.22
-6.46
-12.97
-18.71
-23.60
-28.06
-32.84
-38.84
-46.81
-57.04
-69.08
-81.46
-91.76
-97.08
-94.86
-83.81
-64.52
-39.41
-12.08
13.79
35.41
51.37
61.58
66.73
67.75
65.51
60.67
53.90
46.02
38.00
30.84
25.32
21.80
20.11
19.70
19.81
19.85
19.56
19.08
18.66
18.44
18.10
16.91
13.95
8.57
0.79
-8.66
-18.55
-27.66
-35.25
-41.33
-46.60
-52.19
-59.13
-67.89
-77.99
-87.85
-95.02
-96.68
-90.61
-75.95
-53.63
-26.28
2.54
29.34
51.49
67.66
77.64
81.92
81.25
76.38
68.12
57.44
45.60
33.92
23.59
15.33
9.29
5.12
2.33
0.55
-0.31
-0.11
1.18
3.23
5.35
6.62
6.31
4.14
0.34
-4.54
-9.91
-15.44
-21.03
-26.87
-33.20
-40.30
-48.40
-57.49
-66.99
-75.52
-80.90
-80.68
-72.97
-57.31
-35.06
-9.11
16.95
39.92
57.71
69.59
75.82
77.21
74.65
68.96
60.91
51.33
41.13
31.21
22.34
15.04
9.56
5.90
3.85
3.11
3.27
3.85
4.24
3.82
2.05
-1.40
-6.52
-12.87
-19.71
-26.17
-31.52
-35.48
-38.37
-41.15
-45.13
-51.57
-60.95
-72.51
-84.06
-92.37
-94.15
-87.19
-71.21
-48.09
-21.26
5.36
28.50
46.25
58.12
64.67
66.89
65.72
61.82
55.67
47.75
38.70
29.35
20.62
13.37
8.19
5.24
4.26
4.55
5.26
5.55
4.83
2.85
-0.33
-4.46
-9.26
-14.53
-20.23
-26.45
-33.42
-41.49
-50.99
-61.96
-73.75
-84.79
-92.61
-94.49
-88.34
-73.66
-51.88
-26.08
-0.08
22.76
40.37
52.19
58.85
61.48
61.10
58.32
53.45
46.72
38.60
29.86
21.49
14.46
9.41
6.51
5.41
5.43
5.76
5.75
5.01
3.42
1.00
-2.16
-6.02
-10.57
-15.88
-22.12
-29.56
-38.58
-49.38
-61.63
-74.01
-84.17
-89.19
-86.49
-74.88
-55.17
-30.16
-3.71
20.48
39.88
53.54
61.81
65.57
65.66
62.55
56.54
48.09
38.07
27.76
18.49
11.29
6.55
4.00
2.80
2.00
0.85
-0.96
-3.31
-5.83
-8.22
-10.46
-12.87
-15.95
-20.23
-26.10
-33.75
-43.17
-53.96
-65.06
-74.63
-80.15
-79.09
-69.83
-52.51
-29.15
-3.25
21.40
41.84
56.64
65.78
70.12
70.55
67.60
61.50
52.58
41.65
30.15
19.81
12.15
7.88
6.66
7.30
8.29
8.36
6.90
4.11
0.61
-2.90
-6.10
-9.13
-12.58
-17.20
-23.67
-32.41
-43.43
-56.12
-69.07
-80.05
-86.25
-85.00
-74.76
-55.83
-30.57
-2.79
23.39
44.74
59.64
68.11
71.22
70.25
66.14
59.42
50.42
39.77
28.51
18.08
9.83
4.63
2.48
2.51
3.29
3.35
1.71
-1.87
-6.97
-12.81
-18.66
-24.18
-29.38
-34.60
-40.32
-47.05
-55.24
-65.11
-76.31
-87.58
-96.60
-100.40
-96.29
-82.87
-60.84
-33.00
-3.30
24.32
47.14
64.05
75.27
81.67
84.05
82.86
78.42
71.28
62.42
53.26
45.17
39.04
35.03
32.55
30.66
28.55
25.97
23.31
21.30
20.53
20.98
21.83
21.78
19.57
14.56
7.01
-2.06
-11.37
-19.85
-27.10
-33.35
-39.39
-46.23
-54.84
-65.97
-79.71
-95.17
-110.15
-121.36
-125.09
-118.48
-100.61
-73.18
-40.10
-6.27
23.98
48.03
65.35
76.94
84.40
88.97
91.28
91.42
89.48
85.83
81.25
76.67
72.83
70.02
68.04
66.46
64.84
63.08
61.41
60.22
59.79
59.96
60.12
59.31
56.57
51.38
43.84
34.74
25.26
16.60
9.47
3.92
-0.72
-5.42
-11.13
-18.33
-26.85
-35.96
-44.70
-52.22
-58.15
-62.66
-66.42
-70.43
-75.79
-83.43
-93.87
-106.71
-120.38
-131.98
-137.85
-134.59
-120.31
-95.57
-63.41
-28.51
4.31
31.51
51.59
64.98
73.22
77.97
80.40
81.03
80.02
77.59
74.16
70.39
66.92
64.19
62.31
61.16
60.49
60.08
59.84
59.77
59.87
60.01
59.93
59.22
57.42
54.18
49.38
43.15
35.87
28.08
20.35
13.15
6.75
1.15
-3.95
-9.04
-14.62
-21.02
-28.21
-35.77
-43.04
-49.44
-54.65
-58.83
-62.54
-66.59
-71.81
-78.87
-88.04
-98.95
-110.23
-119.58
-123.96
-120.52
-107.57
-85.45
-56.70
-25.37
4.26
28.88
47.01
58.87
65.74
69.07
69.83
68.47
65.20
60.42
54.88
49.51
45.16
42.23
40.63
39.95
39.83
40.20
41.22
43.13
45.91
49.12
51.96
53.52
53.09
50.43
45.79
39.88
33.56
27.58
22.31
17.56
12.76
7.12
0.07
-8.42
-17.81
-27.18
-35.63
-42.60
-48.05
-52.41
-56.43
-61.02
-67.15
-75.52
-86.24
-98.33
-109.55
-116.78
-116.84
-107.74
-89.53
-64.41
-36.08
-8.44
15.49
34.17
47.49
56.17
61.08
62.89
62.04
58.97
54.33
49.04
44.17
40.61
38.84
38.80
40.01
41.78
43.55
45.03
46.26
47.42
48.62
49.74
50.42
50.30
49.12
46.88
43.74
39.94
35.62
30.81
25.47
19.50
12.84
5.39
-2.95
-12.20
-22.24
-32.67
-42.88
-52.23
-60.29
-67.08
-73.11
-79.29
-86.58
-95.47
-105.52
-115.02
-121.25
-121.19
-112.60
-94.98
-70.00
-41.07
-12.29
12.85
32.33
45.79
54.03
58.30
59.62
58.62
55.76
51.55
46.83
42.61
39.83
39.00
40.00
42.15
44.52
46.34
47.25
47.37
47.10
46.77
46.41
45.64
43.89
40.64
35.73
29.46
22.55
15.88
10.18
5.80
2.60
-0.08
-3.17
-7.64
-14.10
-22.53
-32.24
-42.07
-50.82
-57.74
-62.83
-66.80
-70.83
-76.09
-83.33
-92.56
-102.79
-112.11
-117.93
-117.66
-109.50
-93.10
-70.00
-43.13
-16.09
7.98
27.11
40.70
49.17
53.47
54.51
53.05
49.73
45.20
40.19
35.48
31.71
29.25
28.16
28.26
29.21
30.71
32.53
34.52
36.53
38.25
39.22
38.86
36.64
32.38
26.36
19.33
12.26
6.00
0.88
-3.41
-7.69
-12.84
-19.37
-27.11
-35.28
-42.81
-48.90
-53.34
-56.67
-59.98
-64.54
-71.32
-80.55
-91.44
-102.10
-109.87
-111.92
-106.14
-91.91
-70.46
-44.59
-17.85
6.49
26.21
40.48
49.54
54.27
55.67
54.58
51.73
47.76
43.38
39.25
35.93
33.72
32.65
32.52
33.07
34.08
35.42
37.05
38.82
40.44
41.41
41.07
38.84
34.44
28.10
20.55
12.82
5.86
0.17
-4.38
-8.45
-12.87
-18.22
-24.56
-31.38
-37.86
-43.30
-47.40
-50.47
-53.33
-57.10
-62.89
-71.34
-82.25
-94.24
-104.83
-110.88
-109.55
-99.23
-80.28
-55.11
-27.39
-1.01
21.12
37.61
48.61
55.23
58.88
60.65
61.23
60.96
60.06
58.73
57.13
55.45
53.76
52.09
50.47
48.97
47.69
46.66
45.82
44.94
43.73
41.84
39.07
35.38
30.91
25.86
20.40
14.55
8.21
1.22
-6.50
-14.79
-23.25
-31.42
-38.92
-45.62
-51.78
-57.96
-64.92
-73.34
-83.41
-94.43
-104.61
-111.27
-111.55
-103.45
-86.71
-63.10
-35.97
-9.14
14.25
32.49
45.44
53.86
58.76
60.84
60.44
57.79
53.32
47.87
42.53
38.32
35.85
35.08
35.45
36.14
36.44
36.05
35.11
34.01
33.11
32.41
31.54
29.82
26.59
21.47
14.52
6.29
-2.40
-10.68
-17.93
-23.98
-29.11
-34.09
-39.86
-47.39
-57.19
-69.02
-81.62
-92.69
-99.38
-99.02
-90.02
-72.52
-48.52
-21.31
5.46
28.82
47.05
59.85
67.85
72.10
73.51
72.73
70.15
66.13
61.14
55.80
50.83
46.87
44.34
43.32
43.54
44.48
45.51
46.07
45.79
44.54
42.35
39.39
35.77
31.52
26.55
20.71
13.94
6.33
-1.81
-10.02
-17.81
-24.81
-30.93
-36.32
-41.33
-46.40
-51.95
-58.34
-65.70
-73.58
-80.64
-84.61
-82.62
-72.09
-51.79
-22.48
13.01
50.58
86.14
116.65
140.63
157.85
168.58
172.87
170.34
160.56
143.69
121.02
95.02
68.92
45.92
28.47
17.76
13.70
15.19
20.51
27.77
35.25
41.53
45.58
46.78
44.87
39.91
32.15
21.83
8.93
-6.93
-26.38
-49.96
-77.39
-107.22
-136.74
-162.63
-181.87
-192.69
-194.89
-189.65
-179.10
-165.77
-152.21
-140.69
-132.63
-128.08
-125.44
-121.68
-113.39
-98.04
-75.10
-46.17
-14.33
17.07
45.50
69.59
89.02
103.91
114.47
120.92
123.57
123.00
120.07
115.74
110.83
105.82
100.86
95.92
91.00
86.19
81.72
77.70
73.99
70.11
65.35
59.02
50.71
40.42
28.58
15.76
2.58
-10.41
-22.61
-33.27
-41.42
-46.13
-46.83
-43.71
-37.79
-30.67
-23.98
-18.77
-15.21
-12.63
-9.94
-6.14
-0.69
6.45
14.93
24.36
34.30
44.30
53.65
61.38
66.38
67.74
65.23
59.48
51.87
44.18
37.97
34.14
32.80
33.36
34.87
36.28
36.69
35.50
32.46
27.63
21.34
14.11
6.53
-0.86
-7.71
-13.85
-19.41
-24.76
-30.46
-37.14
-45.36
-55.49
-67.62
-81.47
-96.38
-111.23
-124.44
-134.14
-138.52
-136.35
-127.37
-112.56
-93.89
-73.85
-54.81
-38.51
-25.74
-16.44
-9.94
-5.31
-1.70
1.38
4.01
5.98
7.09
7.45
7.62
8.49
10.89
15.15
20.98
27.52
33.78
39.01
42.95
45.72
47.69
49.22
50.62
52.18
54.20
56.88
60.15
63.62
66.55
68.15
67.95
65.98
62.87
59.48
56.51
54.11
51.79
48.64
43.78
36.92
28.61
20.28
13.92
11.52
14.50
23.25
36.86
53.25
69.67
83.34
92.20
95.39
93.38
87.61
79.94
72.08
65.18
59.75
55.80
53.14
51.58
51.05
51.55
53.13
55.72
59.09
62.81
66.19
68.42
68.67
66.33
61.15
53.43
43.89
33.43
22.92
12.86
3.33
-5.93
-15.34
-25.14
-35.19
-44.84
-53.06
-58.72
-60.96
-59.54
-55.02
-48.58
-41.71
-35.67
-31.24
-28.47
-26.83
-25.51
-23.78
-21.19
-17.75
-13.84
-10.09
-7.20
-5.81
-6.35
-8.98
-13.54
-19.53
-26.16
-32.47
-37.58
-40.95
-42.64
-43.41
-44.61
-47.83
-54.38
-64.93
-79.31
-96.52
-115.08
-133.49
-150.60
-165.70
-178.49
-188.71
-195.98
-199.72
-199.47
-195.19
-187.51
-177.65
-167.08
-157.07
-148.27
-140.68
-133.84
-127.15
-120.17
-112.72
-104.86
-96.83
-88.98
-81.69
-75.38
-70.27
-66.18
-62.36
-57.52
-50.15
-38.99
-23.63
-4.70
16.20
36.98
55.68
70.95
82.19
89.43
93.05
93.46
91.04
86.08
78.88
69.80
59.34
48.17
37.10
27.03
18.80
12.98
9.65
8.52
9.00
10.47
12.47
14.64
16.58
17.65
16.95
13.42
6.20
-5.07
-19.98
-37.27
-55.13
-71.49
-84.67
-93.89
-99.48
-102.81
-105.89
-110.65
-118.51
-130.07
-145.00
-162.06
-179.08
-193.05
-200.47
-198.08
-183.83
-157.60
-121.64
-80.00
-37.70
0.57
31.32
52.78
64.90
68.89
66.75
60.74
53.08
45.95
41.29
40.54
44.03
50.59
57.62
61.85
60.76
53.55
41.51
27.30
13.71
2.57
-5.51
-10.68
-13.08
-12.35
-7.90
0.54
12.48
26.74
41.77
56.22
68.97
79.16
86.11
89.39
89.02
85.48
79.53
71.68
62.03
50.29
36.39
21.20
6.71
-4.34
-9.44
-7.37
1.38
14.73
29.83
43.89
54.91
61.91
64.87
64.41
61.46
56.91
51.48
45.64
39.77
34.33
29.85
26.89
25.76
26.43
28.43
31.13
34.06
37.06
40.24
43.73
47.44
50.85
53.22
53.90
52.59
49.61
45.71
41.89
39.02
37.46
36.99
36.83
35.87
33.05
27.66
19.66
9.78
-0.50
-9.26
-14.62
-15.38
-11.44
-3.89
5.23
13.55
19.06
20.54
17.66
10.73
0.34
-12.84
-28.08
-44.28
-59.82
-72.57
-80.23
-80.85
-73.53
-58.94
-39.47
-18.91
-1.46
9.30
11.51
5.51
-6.29
-20.25
-32.63
-40.66
-43.22
-40.80
-35.20
-28.94
-24.73
-25.03
-31.62
-45.06
-64.47
-87.56
-111.22
-132.42
-149.11
-160.65
-167.61
-171.02
-171.40
-168.30
-160.57
-147.06
-127.55
-103.16
-76.26
-49.56
-25.46
-5.41
10.14
21.52
29.56
35.68
42.20
52.16
68.40
91.89
120.27
147.69
166.37
169.62
154.85
124.86
86.81
49.37
19.64
1.36
-5.00
-0.97
11.06
28.25
47.06
63.36
73.23
74.63
68.65
59.43
52.56
52.56
60.76
74.67
89.02
98.18
98.49
89.56
74.17
56.71
41.20
29.68
21.66
14.83
6.49
-4.94
-19.18
-34.32
-47.74
-57.29
-61.94
-61.88
-58.05
-51.65
-43.69
-35.01
-26.42
-18.83
-13.15
-10.07
-9.59
-10.96
-12.76
-13.43
-12.09
-8.95
-5.52
-4.13
-6.93
-15.18
-28.60
-45.57
-63.78
-81.05
-96.04
-108.49
-119.17
-129.41
-140.67
-154.11
-170.21
-188.42
-206.95
-222.90
-232.80
-233.51
-223.14
-201.87
-171.95
-137.16
-101.84
-69.75
-43.37
-23.64
-10.11
-1.40
4.16
8.22
12.12
16.80
22.81
30.32
39.20
48.97
58.85
67.91
75.23
80.19
82.50
82.31
79.92
75.71
69.97
63.05
55.39
47.72
40.93
35.79
32.62
30.97
29.58
26.67
20.39
9.47
-6.25
-25.48
-45.49
-62.57
-72.91
-73.63
-63.65
-44.12
-18.15
10.21
37.07
59.80
77.47
90.69
101.01
109.96
118.48
126.58
133.40
137.64
138.02
133.75
124.91
112.63
98.95
86.46
77.71
74.55
77.64
86.31
98.68
112.20
124.21
132.39
135.08
131.32
120.95
104.64
83.94
61.17
38.98
19.87
5.46
-3.86
-9.03
-12.04
-15.42
-21.49
-31.65
-45.78
-62.01
-77.07
-87.08
-88.79
-80.63
-63.27
-39.31
-12.39
13.99
37.33
56.34
70.63
80.22
85.13
85.37
81.24
73.47
63.34
52.37
41.97
33.15
26.41
21.85
19.39
18.89
20.21
23.09
26.96
30.93
33.76
34.26
31.55
25.48
16.64
6.24
-4.28
-13.75
-21.62
-28.18
-34.36
-41.48
-50.67
-62.40
-75.97
-89.43
-99.82
-103.92
-99.27
-85.00
-62.24
-33.83
-3.46
25.34
49.94
68.98
82.15
89.80
92.59
91.24
86.52
79.36
70.81
62.00
53.96
47.41
42.65
39.61
38.02
37.57
37.98
39.00
40.25
41.08
40.66
38.20
33.27
26.03
17.28
8.17
-0.26
-7.44
-13.52
-19.30
-25.97
-34.69
-46.13
-60.00
-74.78
-87.81
-95.78
-95.62
-85.61
-65.98
-39.12
-8.79
20.92
46.72
66.77
80.67
88.93
92.40
91.87
88.00
81.56
73.51
64.94
56.85
49.87
44.15
39.49
35.65
32.60
30.56
29.84
30.47
31.99
33.36
33.28
30.63
24.87
16.27
5.78
-5.27
-15.64
-24.55
-31.90
-38.33
-45.04
-53.36
-64.18
-77.34
-91.19
-102.84
-108.78
-106.11
-93.65
-72.46
-45.60
-17.06
9.45
31.43
47.97
59.35
66.37
69.77
70.01
67.41
62.39
55.76
48.62
42.17
37.31
34.45
33.39
33.49
34.01
34.33
34.23
33.79
33.26
32.77
32.07
30.60
27.65
22.68
15.69
7.27
-1.57
-9.77
-16.66
-22.20
-26.94
-31.79
-37.73
-45.52
-55.57
-67.66
-80.76
-92.87
-101.24
-102.97
-95.96
-79.74
-55.91
-27.76
0.70
25.96
45.78
59.51
67.61
71.07
70.84
67.63
62.06
54.79
46.71
38.80
32.04
27.10
24.28
23.40
23.98
25.36
26.89
28.06
28.48
27.94
26.33
23.62
19.90
15.29
9.95
4.01
-2.44
-9.35
-16.56
-23.86
-30.89
-37.33
-43.03
-48.10
-52.94
-58.21
-64.64
-72.81
-82.83
-93.95
-104.41
-111.51
-112.29
-104.45
-87.31
-62.30
-32.72
-2.72
23.81
44.35
58.05
65.44
67.74
66.15
61.54
54.47
45.49
35.35
25.04
15.73
8.48
4.08
2.97
5.19
10.36
17.67
25.87
33.35
38.48
39.99
37.32
30.82
21.62
11.22
1.12
-7.60
-14.30
-18.78
-20.96
-20.89
-18.71
-14.82
-10.04
-5.61
-3.09
-4.02
-9.56
-20.03
-34.57
-50.95
-65.76
-75.09
-75.54
-65.37
-45.22
-18.11
11.40
38.53
59.63
72.97
78.82
78.84
75.31
70.33
65.42
61.34
58.20
55.60
52.83
49.09
43.76
36.60
27.97
18.71
10.06
3.22
-0.98
-2.36
-1.47
0.65
2.81
4.02
3.76
1.95
-1.18
-5.34
-10.30
-15.98
-22.29
-29.00
-35.72
-41.95
-47.26
-51.48
-54.80
-57.82
-61.28
-65.98
-72.45
-80.68
-89.86
-98.28
-103.57
-103.27
-95.69
-80.54
-59.26
-34.65
-10.05
11.60
28.48
39.97
46.39
48.36
46.45
41.13
32.89
22.59
11.52
1.29
-6.59
-11.12
-12.06
-9.91
-5.69
-0.47
4.87
9.80
14.01
17.16
18.86
18.68
16.37
12.05
6.27
-0.12
-6.29
-11.63
-15.97
-19.52
-22.68
-25.89
-29.54
-33.99
-39.54
-46.36
-54.16
-61.94
-67.89
-69.77
-65.56
-54.29
-36.48
-14.18
9.69
32.22
51.21
65.51
74.90
79.68
80.36
77.55
72.03
64.79
57.04
49.86
44.01
39.80
37.14
35.77
35.46
36.07
37.52
39.61
41.89
43.65
44.06
42.36
38.10
31.28
22.38
12.17
1.53
-8.85
-18.57
-27.62
-36.23
-44.75
-53.45
-62.30
-70.68
-77.18
-79.68
-75.82
-63.89
-43.61
-16.60
13.92
44.12
70.66
91.47
105.83
114.00
116.60
114.29
107.83
98.32
87.19
75.96
65.69
56.60
48.01
38.79
27.96
15.16
0.99
-13.27
-26.07
-36.28
-43.66
-49.16
-54.66
-62.22
-73.19
-87.36
-102.86
-116.74
-126.18
-129.64
-127.60
-122.32
-117.03
-114.72
-117.15
-124.32
-134.42
-144.28
-150.09
-148.40
-137.15
-116.32
-88.10
-56.27
-25.02
2.15
23.25
37.88
46.80
51.24
52.41
51.25
48.55
45.04
41.45
38.41
36.30
35.13
34.55
34.07
33.33
32.34
31.50
31.45
32.62
34.89
37.39
38.68
37.23
32.06
23.15
11.49
-1.28
-13.51
-24.14
-33.02
-40.89
-49.00
-58.63
-70.59
-84.79
-99.97
-113.72
-122.94
-124.64
-117.03
-100.33
-76.86
-50.43
-25.12
-3.94
11.80
22.49
29.44
34.06
37.26
39.39
40.60
41.24
41.97
43.62
46.83
51.68
57.69
63.96
69.60
74.09
77.41
79.98
82.28
84.58
86.67
87.89
87.33
84.11
77.74
68.29
56.47
43.44
30.48
18.69
8.70
0.42
-6.93
-14.88
-25.27
-39.63
-58.38
-80.08
-101.32
-117.40
-123.80
-117.76
-99.39
-71.68
-39.42
-7.61
19.91
41.20
56.00
65.09
69.56
70.36
68.28
64.05
58.54
52.72
47.57
43.79
41.63
40.86
40.82
40.75
40.01
38.29
35.64
32.25
28.34
23.95
18.93
13.09
6.32
-1.26
-9.33
-17.46
-25.26
-32.49
-39.11
-45.17
-50.77
-56.01
-61.11
-66.55
-73.14
-81.68
-92.46
-104.65
-116.02
-123.35
-123.38
-113.98
-95.03
-68.43
-37.53
-5.95
23.31
48.40
68.48
83.31
92.80
96.91
95.79
90.03
80.76
69.54
58.01
47.55
39.10
33.10
29.65
28.62
29.68
32.21
35.25
37.67
38.44
37.06
33.66
28.99
24.06
19.65
16.09
13.19
10.40
7.11
2.88
-2.51
-9.01
-16.47
-24.70
-33.61
-43.23
-53.69
-64.80
-75.76
-84.91
-89.83
-88.11
-78.20
-60.21
-36.14
-9.25
16.85
39.34
56.70
68.68
75.72
78.45
77.35
72.78
65.31
55.93
46.00
37.08
30.57
27.36
27.66
31.01
36.42
42.72
48.86
54.14
58.32
61.49
63.81
65.33
65.79
64.65
61.41
55.80
48.01
38.69
28.72
18.88
9.60
0.82
-7.95
-17.49
-28.62
-41.97
-57.65
-74.95
-92.12
-106.42
-114.60
-113.77
-102.34
-80.67
-51.21
-17.83
15.14
43.92
66.08
80.72
88.24
89.79
86.81
80.66
72.52
63.40
54.29
46.06
39.40
34.55
31.29
28.94
26.65
23.74
19.93
15.30
10.17
4.75
-0.96
-7.17
-14.12
-21.75
-29.44
-35.93
-39.62
-39.06
-33.73
-24.66
-14.53
-6.85
-4.63
-8.89
-17.91
-27.70
-33.66
-32.51
-23.67
-9.33
6.75
20.94
31.02
36.51
38.04
36.48
32.17
24.94
14.54
1.23
-13.86
-28.80
-41.36
-49.65
-52.66
-50.53
-44.41
-36.01
-27.09
-18.97
-12.46
-8.09
-6.37
-7.85
-12.90
-21.33
-32.16
-43.78
-54.56
-63.38
-70.04
-75.02
-78.88
-81.62
-82.47
-80.30
-74.48
-65.55
-55.31
-45.98
-38.97
-33.92
-28.56
-19.78
-5.14
15.79
41.11
67.32
90.73
108.70
120.19
125.43
125.37
121.17
114.15
105.83
97.83
91.39
86.65
82.42
76.62
67.48
54.77
40.37
27.78
20.58
20.89
28.36
40.42
53.41
63.96
70.00
70.91
67.05
59.10
47.68
33.37
17.00
-0.22
-16.84
-31.60
-43.96
-54.33
-63.82
-73.54
-83.78
-93.47
-100.36
-101.82
-95.95
-82.54
-63.31
-41.41
-20.40
-3.17
8.76
15.36
17.70
17.30
15.51
13.22
10.72
7.79
4.05
-0.85
-6.98
-14.08
-21.60
-28.87
-35.28
-40.52
-44.61
-47.96
-51.11
-54.52
-58.34
-62.33
-66.05
-69.15
-71.65
-74.04
-77.30
-82.67
-91.29
-103.88
-120.33
-139.43
-158.85
-175.34
-185.39
-185.99
-175.39
-153.47
-121.69
-82.68
-39.66
4.05
45.31
81.40
110.26
130.75
142.91
147.97
147.99
145.28
141.60
137.74
133.44
127.73
119.66
108.78
95.40
80.45
65.06
50.19
36.40
23.98
13.07
3.81
-3.62
-9.24
-13.37
-16.62
-19.70
-23.20
-27.39
-32.40
-38.37
-45.53
-53.83
-62.43
-69.28
-71.32
-65.29
-49.07
-22.82
10.74
46.96
80.69
107.84
126.33
136.13
138.73
136.16
130.27
122.37
113.20
103.18
92.54
81.47
70.17
58.86
47.79
37.18
27.25
18.14
9.86
2.24
-5.01
-12.22
-19.54
-26.76
-33.27
-38.16
-40.71
-40.71
-38.82
-36.44
-35.27
-36.67
-41.08
-47.86
-55.40
-61.60
-64.47
-62.66
-55.82
-44.73
-31.07
-16.99
-4.52
4.92
10.84
13.55
13.83
12.44
9.87
6.27
1.57
-4.28
-11.14
-18.73
-26.63
-34.55
-42.27
-49.78
-57.10
-64.27
-71.18
-77.59
-83.21
-87.83
-91.45
-94.29
-96.76
-99.32
-102.47
-106.64
-112.20
-119.30
-127.52
-135.65
-141.59
-142.72
-136.66
-122.15
-99.70
-71.68
-41.61
-13.19
10.71
28.68
40.70
47.67
50.77
50.90
48.52
43.88
37.24
29.23
20.81
13.12
7.09
3.14
1.08
0.29
-0.07
-0.60
-1.58
-2.93
-4.42
-5.90
-7.43
-9.32
-12.00
-15.93
-21.53
-29.18
-38.98
-50.58
-62.83
-73.60
-80.07
-79.43
-69.86
-51.34
-25.93
2.80
30.76
54.55
72.18
83.25
88.53
89.23
86.56
81.33
74.09
65.27
55.37
45.07
35.11
26.22
18.93
13.48
9.80
7.58
6.31
5.44
4.44
2.93
0.69
-2.31
-5.99
-10.23
-14.99
-20.38
-26.73
-34.43
-43.79
-54.65
-66.02
-75.95
-81.78
-80.84
-71.32
-53.08
-27.94
0.73
28.97
53.31
71.53
82.99
88.20
88.39
84.90
78.96
71.49
63.25
54.79
46.47
38.52
31.09
24.36
18.62
14.26
11.57
10.55
10.82
11.59
11.92
10.94
8.20
3.69
-2.13
-8.59
-15.05
-21.15
-26.95
-32.94
-39.90
-48.57
-59.12
-70.73
-81.38
-88.09
-87.79
-78.35
-59.50
-33.22
-3.14
26.46
51.90
70.97
83.09
88.93
89.71
86.71
80.97
73.33
64.62
55.66
47.16
39.60
33.06
27.37
22.30
17.80
14.11
11.65
10.72
11.17
12.29
12.97
12.08
8.93
3.48
-3.56
-11.17
-18.33
-24.50
-29.72
-34.61
-40.14
-47.30
-56.60
-67.65
-78.89
-87.62
-90.73
-85.59
-71.15
-48.45
-20.44
8.84
35.56
57.06
72.21
81.19
84.92
84.41
80.57
74.17
66.03
57.07
48.24
40.34
33.80
28.64
24.60
21.28
18.47
16.16
14.58
13.99
14.36
15.24
15.75
14.85
11.74
6.23
-1.17
-9.43
-17.41
-24.29
-29.83
-34.45
-39.05
-44.68
-52.18
-61.74
-72.56
-82.68
-89.32
-89.61
-81.51
-64.69
-40.87
-13.33
14.05
37.88
56.11
68.18
74.64
76.54
74.89
70.47
63.89
55.82
47.12
38.73
31.47
25.78
21.62
18.61
16.23
14.18
12.50
11.45
11.33
12.17
13.52
14.56
14.31
12.03
7.47
0.99
-6.55
-14.15
-20.98
-26.65
-31.32
-35.55
-40.19
-46.06
-53.67
-62.90
-72.74
-81.28
-85.98
-84.42
-75.12
-58.21
-35.54
-10.21
14.34
35.34
51.20
61.62
67.08
68.42
66.40
61.74
55.16
47.51
39.75
32.74
27.01
22.62
19.24
16.42
13.82
11.42
9.49
8.34
8.16
8.76
9.56
9.77
8.59
5.55
0.71
-5.39
-11.88
-17.87
-22.80
-26.67
-30.08
-34.07
-39.70
-47.54
-57.25
-67.34
-75.44
-78.80
-75.29
-64.05
-45.99
-23.55
0.03
21.65
39.14
51.51
58.82
61.67
60.85
57.10
51.16
43.88
36.20
29.03
22.95
18.16
14.43
11.37
8.67
6.31
4.53
3.68
3.91
4.96
6.16
6.62
5.56
2.62
-2.04
-7.75
-13.67
-19.05
-23.50
-27.12
-30.45
-34.31
-39.49
-46.47
-54.96
-63.74
-70.72
-73.42
-69.77
-58.90
-41.61
-20.21
2.10
22.30
38.27
49.14
55.12
57.02
55.76
52.12
46.74
40.23
33.26
26.49
20.44
15.37
11.29
8.09
5.62
3.84
2.80
2.51
2.84
3.42
3.62
2.73
0.26
-3.93
-9.45
-15.61
-21.59
-26.80
-31.12
-34.84
-38.68
-43.40
-49.58
-57.14
-65.18
-71.83
-74.72
-71.63
-61.44
-44.63
-23.34
-0.74
19.98
36.51
47.81
54.09
56.26
55.31
52.10
47.19
41.07
34.23
27.26
20.74
15.19
10.95
8.22
6.99
7.12
8.29
9.98
11.57
12.40
11.99
10.16
7.02
2.92
-1.70
-6.49
-11.24
-15.97
-20.91
-26.48
-33.16
-41.21
-50.31
-59.25
-65.96
-67.97
-63.30
-51.25
-32.96
-11.11
10.87
29.88
43.98
52.61
56.39
56.37
53.66
49.02
43.01
36.11
28.93
22.14
16.43
12.25
9.72
8.76
9.09
10.38
12.27
14.32
16.02
16.87
16.45
14.64
11.63
7.82
3.58
-0.88
-5.61
-10.90
-17.12
-24.60
-33.42
-43.20
-52.91
-60.80
-64.73
-62.76
-53.97
-38.95
-19.87
0.19
18.15
31.81
40.32
43.96
43.63
40.32
34.77
27.45
18.80
9.34
-0.21
-9.13
-16.76
-22.68
-26.74
-28.95
-29.55
-28.85
-27.30
-25.46
-24.02
-23.59
-24.63
-27.26
-31.21
-35.98
-40.98
-45.81
-50.32
-54.74
-59.55
-65.40
-72.71
-81.33
-90.23
-97.34
-100.07
-95.95
-83.82
-64.31
-39.91
-14.21
9.26
28.01
41.08
48.81
52.22
52.41
50.23
46.30
41.21
35.65
30.44
26.24
23.43
21.89
21.18
20.78
20.35
19.94
19.86
20.43
21.67
23.06
23.69
22.58
19.19
13.63
6.67
-0.54
-6.96
-12.04
-15.90
-19.27
-23.31
-29.12
-37.35
-47.66
-58.55
-67.44
-71.31
-67.70
-55.63
-36.11
-11.89
13.40
36.35
54.63
67.30
74.62
77.47
76.93
74.01
69.56
64.37
59.02
53.94
49.27
45.00
41.07
37.59
34.84
33.12
32.56
33.00
33.98
34.94
35.35
34.97
33.74
31.74
28.96
25.28
20.54
14.68
7.84
0.42
-7.04
-14.03
-20.23
-25.54
-30.13
-34.36
-38.74
-43.89
-50.42
-58.68
-68.37
-78.19
-85.90
-88.69
-84.12
-71.08
-50.34
-24.49
2.80
27.92
48.28
62.74
71.48
75.45
75.84
73.70
69.87
65.10
60.08
55.41
51.51
48.57
46.47
44.99
43.87
43.01
42.47
42.43
42.99
44.06
45.26
45.95
45.40
43.08
38.85
33.06
26.49
20.04
14.39
9.74
5.71
1.62
-3.20
-9.06
-15.78
-22.72
-29.09
-34.34
-38.33
-41.42
-44.41
-48.30
-54.03
-62.06
-71.97
-82.26
-90.41
-93.52
-89.18
-76.45
-56.29
-31.36
-5.19
18.90
38.61
53.05
62.41
67.41
68.88
67.48
63.83
58.67
52.95
47.69
43.76
41.60
41.09
41.70
42.77
43.79
44.60
45.33
46.20
47.27
48.30
48.73
47.94
45.47
41.27
35.73
29.57
23.57
18.34
14.16
10.85
7.91
4.68
0.65
-4.41
-10.33
-16.60
-22.60
-27.82
-32.04
-35.47
-38.70
-42.49
-47.61
-54.59
-63.32
-72.98
-81.86
-87.66
-88.01
-81.29
-67.24
-47.20
-23.79
-0.10
21.07
37.97
49.90
57.10
60.19
59.92
57.01
52.19
46.28
40.18
34.75
30.58
27.94
26.72
26.55
27.02
27.81
28.79
29.97
31.44
33.12
34.69
35.58
35.16
32.97
28.99
23.64
17.75
12.14
7.40
3.62
0.47
-2.63
-6.24
-10.63
-15.70
-21.06
-26.18
-30.57
-34.00
-36.56
-38.65
-40.94
-44.17
-48.97
-55.55
-63.44
-71.32
-77.17
-78.75
-74.29
-63.17
-46.21
-25.51
-3.83
16.20
32.63
44.49
51.61
54.36
53.42
49.57
43.66
36.59
29.25
22.43
16.75
12.63
10.24
9.54
10.29
12.11
14.55
17.16
19.56
21.37
22.28
22.06
20.66
18.15
14.77
10.83
6.57
2.08
-2.67
-7.75
-13.15
-18.73
-24.24
-29.41
-34.07
-38.21
-42.05
-45.98
-50.53
-56.18
-63.11
-70.89
-78.29
-83.38
-84.07
-78.69
-66.75
-49.16
-28.02
-6.04
14.22
30.95
43.27
51.09
54.82
54.96
52.03
46.53
39.11
30.64
22.22
14.96
9.68
6.69
5.74
6.19
7.29
8.55
9.82
11.20
12.83
14.55
15.91
16.18
14.66
11.02
5.42
-1.42
-8.48
-14.82
-19.86
-23.61
-26.53
-29.44
-33.13
-38.28
-45.18
-53.59
-62.70
-70.93
-76.29
-76.69
-70.67
-57.93
-39.56
-17.78
4.71
25.43
42.65
55.47
63.67
67.46
67.20
63.43
56.85
48.44
39.32
30.60
23.14
17.40
13.38
10.75
9.07
8.00
7.38
7.20
7.40
7.70
7.54
6.17
2.92
-2.53
-9.95
-18.59
-27.43
-35.52
-42.30
-47.76
-52.45
-57.30
-63.27
-71.02
-80.49
-90.69
-99.66
-104.90
-104.02
-95.59
-79.65
-57.88
-33.08
-8.39
13.58
31.25
44.01
51.99
55.62
55.45
52.07
46.27
39.09
31.66
25.03
19.90
16.48
14.53
13.58
13.18
13.09
13.29
13.86
14.72
15.50
15.51
13.95
10.23
4.27
-3.46
-11.98
-20.20
-27.35
-33.26
-38.43
-43.80
-50.47
-59.20
-70.06
-82.13
-93.54
-101.68
-103.87
-98.19
-84.18
-63.10
-37.71
-11.45
12.49
31.87
45.71
54.08
57.66
57.34
54.02
48.59
42.01
35.21
29.05
24.10
20.66
18.70
18.05
18.55
20.08
22.51
25.56
28.69
31.10
31.92
30.42
26.40
20.23
12.76
5.01
-2.19
-8.53
-14.30
-20.23
-27.28
-36.26
-47.37
-59.89
-72.08
-81.35
-84.90
-80.56
-67.64
-47.30
-22.33
3.66
27.25
46.01
58.91
66.06
68.25
66.53
61.92
55.38
47.84
40.19
33.23
27.46
23.10
20.09
18.28
17.51
17.65
18.55
19.92
21.18
21.63
20.52
17.38
12.12
5.11
-2.92
-11.17
-18.99
-26.10
-32.70
-39.43
-47.24
-56.93
-68.68
-81.51
-93.15
-100.42
-100.17
-90.43
-71.33
-45.22
-15.98
12.24
36.14
54.02
65.69
71.98
74.01
72.78
69.09
63.67
57.32
50.90
45.16
40.62
37.46
35.54
34.61
34.41
34.72
35.34
35.94
36.04
35.01
32.24
27.36
20.43
11.98
2.86
-6.05
-14.14
-21.31
-27.99
-35.09
-43.63
-54.27
-66.79
-79.69
-90.29
-95.32
-91.96
-78.99
-57.33
-29.99
-1.12
25.31
46.57
61.66
71.01
75.81
77.28
76.29
73.34
68.88
63.48
57.95
53.07
49.38
46.95
45.41
44.21
42.94
41.56
40.37
39.75
39.74
39.84
39.05
36.23
30.65
22.30
12.04
1.22
-8.80
-17.14
-23.72
-29.19
-34.64
-41.28
-50.00
-60.98
-73.42
-85.38
-94.02
-96.23
-89.64
-73.58
-49.46
-20.55
9.00
35.47
56.47
71.30
80.60
85.65
87.66
87.49
85.65
82.52
78.54
74.23
70.15
66.73
64.26
62.78
62.23
62.47
63.32
64.54
65.85
66.84
67.10
66.25
64.03
60.39
55.48
49.61
43.15
36.47
29.88
23.61
17.81
12.56
7.86
3.58
-0.57
-4.98
-10.08
-16.11
-23.03
-30.45
-37.81
-44.52
-50.18
-54.81
-58.75
-62.75
-67.75
-74.64
-83.86
-94.91
-106.01
-114.24
-116.23
-109.32
-92.67
-67.77
-38.16
-8.21
18.16
38.55
52.42
60.60
64.53
65.59
64.70
62.47
59.40
56.08
53.14
51.14
50.33
50.60
51.56
52.72
53.78
54.62
55.37
56.20
57.12
57.91
58.08
57.07
54.46
50.17
44.52
38.22
32.17
27.11
23.36
20.68
18.33
15.48
11.50
6.36
0.56
-5.00
-9.55
-12.73
-14.80
-16.47
-18.66
-22.02
-26.79
-32.71
-39.14
-45.34
-50.76
-55.21
-58.98
-62.75
-67.41
-73.77
-82.13
-91.94
-101.59
-108.60
-110.21
-104.25
-90.06
-68.79
-43.23
-16.94
6.77
25.76
39.25
47.64
51.92
53.13
52.11
49.50
45.91
41.95
38.26
35.40
33.69
33.15
33.58
34.63
36.00
37.49
39.06
40.70
42.27
43.51
44.01
43.36
41.34
38.01
33.74
29.10
24.66
20.82
17.65
14.91
12.15
8.90
4.88
0.17
-4.80
-9.44
-13.23
-16.05
-18.19
-20.36
-23.26
-27.30
-32.42
-38.15
-43.80
-48.75
-52.73
-55.85
-58.68
-62.01
-66.75
-73.52
-82.37
-92.41
-101.78
-107.97
-108.43
-101.44
-86.79
-65.98
-41.79
-17.47
4.14
21.25
33.25
40.45
43.64
43.71
41.49
37.73
33.18
28.62
24.75
22.03
20.61
20.31
20.75
21.55
22.44
23.39
24.47
25.81
27.40
29.01
30.22
30.49
29.42
26.82
22.88
18.10
13.15
8.62
4.84
1.73
-1.08
-4.15
-7.90
-12.47
-17.63
-22.90
-27.72
-31.70
-34.75
-37.12
-39.38
-42.22
-46.37
-52.27
-59.86
-68.32
-75.99
-80.63
-79.98
-72.59
-58.38
-38.88
-16.79
4.79
23.28
37.22
46.32
51.15
52.61
51.53
48.56
44.22
39.06
33.74
28.90
25.09
22.54
21.18
20.72
20.79
21.12
21.63
22.34
23.25
24.15
24.59
24.01
21.90
18.14
13.04
7.23
1.42
-3.89
-8.65
-13.18
-17.97
-23.43
-29.68
-36.52
-43.49
-50.13
-56.11
-61.35
-66.05
-70.60
-75.58
-81.64
-89.25
-98.49
-108.66
-118.15
-124.69
-125.90
-120.17
-107.23
-88.36
-65.98
-42.87
-21.40
-3.08
11.42
22.07
29.13
33.10
34.70
34.92
34.93
35.80
38.13
41.92
46.55
51.15
54.97
57.76
59.84
61.91
64.69
68.58
73.55
79.17
84.73
89.49
92.81
94.32
94.10
92.84
91.68
91.91
94.41
99.21
105.37
111.24
115.09
115.78
113.10
107.65
100.55
93.04
86.48
82.35
82.29
87.72
99.34
116.58
137.44
158.88
177.47
190.25
195.29
191.93
180.62
162.60
139.65
113.82
87.29
62.13
40.03
22.05
8.54
-0.75
-6.55
-9.74
-11.18
-11.53
-11.14
-10.17
-8.73
-7.13
-5.94
-5.90
-7.71
-11.78
-17.98
-25.77
-34.36
-43.03
-51.40
-59.37
-67.03
-74.42
-81.42
-87.75
-93.28
-98.10
-102.60
-107.34
-112.80
-119.21
-126.54
-134.60
-143.11
-151.83
-160.41
-168.30
-174.63
-178.28
-178.08
-173.19
-163.41
-149.31
-132.20
-113.82
-95.98
-80.10
-66.95
-56.53
-48.19
-40.98
-33.86
-26.11
-17.40
-7.81
2.25
12.23
21.53
29.67
36.36
41.58
45.47
48.25
50.00
50.62
49.87
47.58
43.86
39.16
34.23
29.79
26.27
23.63
21.34
18.61
14.76
9.58
3.63
-1.83
-5.12
-4.62
0.58
10.37
23.54
38.05
51.55
61.90
67.57
67.92
63.14
54.12
42.20
28.88
15.60
3.48
-6.76
-14.88
-21.05
-25.77
-29.68
-33.41
-37.46
-42.11
-47.44
-53.43
-60.01
-67.09
-74.56
-82.26
-90.15
-98.53
-108.25
-120.51
-136.39
-155.95
-177.68
-198.46
-214.41
-222.27
-220.61
-210.38
-194.48
-176.68
-160.37
-147.95
-140.66
-138.78
-141.71
-147.82
-154.40
-158.01
-155.43
-144.84
-126.61
-103.19
-78.11
-54.59
-34.48
-17.91
-3.88
8.92
21.28
33.21
43.92
52.35
57.56
59.18
57.69
54.48
51.81
52.30
58.29
71.08
90.27
113.71
137.84
158.76
173.34
180.17
179.78
174.16
165.70
156.31
146.89
137.51
127.81
117.58
106.88
95.84
84.34
71.77
57.25
39.99
19.83
-2.54
-25.68
-47.72
-66.88
-81.76
-91.29
-94.65
-91.17
-80.47
-62.89
-39.81
-13.78
11.90
33.93
49.84
58.54
60.42
56.91
49.97
41.46
32.78
24.78
17.76
11.65
6.20
0.91
-4.86
-11.99
-21.32
-33.15
-46.84
-60.67
-72.49
-80.48
-83.97
-83.55
-80.56
-76.35
-71.69
-66.78
-61.74
-57.10
-53.72
-52.39
-53.08
-54.80
-55.95
-55.26
-52.69
-49.75
-49.17
-54.07
-66.82
-88.00
-115.79
-145.96
-172.71
-190.13
-193.77
-182.02
-156.41
-121.06
-81.27
-42.02
-6.98
21.75
43.23
57.00
62.84
60.80
51.59
36.94
19.53
2.42
-11.73
-21.34
-26.24
-27.41
-26.45
-24.82
-23.41
-22.54
-22.12
-22.01
-22.35
-23.51
-25.95
-29.96
-35.44
-41.95
-48.96
-56.11
-63.51
-71.73
-81.42
-92.84
-105.44
-117.69
-127.37
-132.25
-130.77
-122.52
-108.32
-89.83
-69.00
-47.73
-27.61
-9.83
4.82
16.09
24.38
30.63
36.01
41.37
46.80
51.62
54.79
55.53
53.86
50.70
47.32
44.76
43.38
42.74
41.96
40.19
36.99
32.43
27.00
21.43
16.48
12.85
10.96
11.07
13.13
16.99
22.48
29.34
37.11
44.81
50.84
53.29
50.73
43.12
32.42
22.29
16.98
19.96
32.75
54.86
84.36
119.02
156.66
195.07
231.33
261.55
281.39
287.45
278.79
257.78
229.44
199.84
174.11
155.18
143.62
138.42
138.00
140.80
145.39
150.30
153.89
154.72
152.03
146.00
137.59
127.99
117.92
107.33
95.67
82.42
67.63
52.05
36.79
22.78
10.31
-1.05
-12.25
-24.41
-38.28
-53.82
-69.89
-84.21
-93.81
-95.98
-89.36
-74.85
-55.65
-36.48
-22.10
-15.89
-18.94
-30.14
-46.96
-66.33
-85.40
-101.73
-113.42
-119.12
-118.21
-111.05
-98.88
-83.59
-67.20
-51.33
-37.06
-24.90
-15.09
-7.66
-2.51
0.69
2.47
3.42
3.93
4.14
3.91
3.17
2.04
0.91
0.16
0.03
0.45
1.14
1.70
1.79
1.10
-0.76
-4.25
-9.78
-17.27
-25.83
-33.60
-38.10
-36.88
-28.33
-12.30
9.84
35.46
61.40
84.65
102.91
114.81
119.78
117.73
108.83
93.56
72.91
48.70
23.58
0.60
-17.52
-29.33
-34.96
-36.01
-34.77
-33.35
-33.06
-34.32
-37.03
-41.02
-46.33
-53.09
-61.18
-70.06
-78.79
-86.37
-92.08
-95.73
-97.63
-98.33
-98.38
-98.05
-97.34
-95.99
-93.90
-91.33
-89.16
-88.51
-90.23
-94.05
-98.21
-99.63
-94.90
-81.56
-59.17
-29.58
3.65
36.47
65.52
88.87
105.98
117.28
123.54
125.61
124.32
120.64
115.73
110.88
107.20
105.26
104.96
105.55
105.97
105.24
102.81
98.70
93.35
87.31
81.02
74.61
67.95
60.71
52.59
43.36
32.98
21.56
9.38
-3.04
-14.94
-25.37
-33.41
-38.39
-40.39
-40.21
-39.32
-39.21
-40.67
-43.17
-44.76
-42.71
-34.53
-19.12
2.70
28.32
54.24
77.20
95.05
106.98
113.18
114.22
110.61
102.72
91.02
76.39
60.21
44.17
29.77
17.99
9.01
2.35
-2.75
-6.88
-10.20
-12.38
-12.80
-10.87
-6.26
0.99
10.51
21.74
33.98
46.40
57.99
67.52
73.80
75.81
72.94
65.04
52.40
35.64
15.77
-5.66
-26.49
-44.12
-56.00
-60.31
-56.60
-45.96
-30.72
-13.75
2.39
15.95
26.24
33.32
37.76
40.12
40.96
40.74
39.94
39.23
39.30
40.90
44.50
50.17
57.62
66.23
75.40
84.58
93.33
101.14
107.30
110.95
111.26
107.78
100.71
90.99
79.95
68.92
58.75
49.54
40.72
31.38
20.82
9.02
-3.18
-14.19
-22.24
-26.06
-25.53
-22.08
-18.67
-19.20
-27.31
-45.04
-71.58
-102.94
-132.94
-155.21
-165.42
-162.86
-150.50
-133.53
-117.15
-104.75
-97.07
-92.83
-89.88
-86.41
-81.47
-74.85
-66.71
-57.28
-46.97
-36.47
-26.94
-19.75
-16.19
-16.98
-22.04
-30.54
-41.13
-52.40
-63.15
-72.75
-81.20
-88.96
-96.55
-104.08
-110.80
-115.02
-114.52
-107.35
-92.81
-71.88
-47.17
-22.17
-0.18
16.61
27.45
32.91
34.33
33.14
30.45
26.98
23.17
19.37
15.98
13.39
11.86
11.39
11.73
12.38
12.86
12.81
12.07
10.69
8.73
6.18
2.88
-1.36
-6.71
-13.12
-20.32
-27.89
-35.46
-42.91
-50.46
-58.66
-68.09
-78.91
-90.46
-101.07
-108.28
-109.50
-102.95
-88.40
-67.43
-43.02
-18.65
2.82
19.82
32.12
40.49
45.97
49.37
51.18
51.69
51.29
50.57
50.15
50.42
51.25
52.06
52.00
50.35
46.84
41.74
35.65
29.29
23.07
16.99
10.70
3.73
-4.21
-13.02
-22.17
-30.90
-38.52
-44.72
-49.68
-54.02
-58.53
-64.00
-70.97
-79.62
-89.57
-99.75
-108.33
-112.90
-111.05
-101.19
-83.28
-59.05
-31.65
-4.72
18.71
36.86
49.39
57.04
60.96
62.27
61.80
60.21
58.01
55.70
53.71
52.38
51.85
52.12
53.07
54.54
56.46
58.74
61.44
64.56
68.02
71.56
74.71
76.93
77.82
77.30
75.76
73.84
72.21
71.17
70.46
69.41
67.20
63.31
57.75
51.04
43.92
37.03
30.62
24.58
18.59
12.40
6.04
-0.21
-5.96
-10.92
-15.07
-18.70
-22.28
-26.33
-31.11
-36.59
-42.37
-47.84
-52.39
-55.61
-57.48
-58.36
-58.91
-60.02
-62.59
-67.28
-74.15
-82.31
-89.86
-94.13
-92.46
-83.11
-66.03
-43.00
-17.18
7.92
29.42
45.63
56.21
61.72
63.12
61.41
57.37
51.70
45.01
37.94
31.13
25.15
20.41
17.11
15.23
14.61
15.04
16.34
18.30
20.71
23.24
25.47
26.96
27.36
26.54
24.62
21.93
18.95
16.09
13.62
11.65
10.04
8.58
7.06
5.39
3.63
1.95
0.51
-0.69
-1.79
-3.01
-4.50
-6.30
-8.23
-10.14
-11.99
-13.96
-16.39
-19.53
-23.44
-27.79
-32.07
-35.77
-38.63
-40.83
-42.92
-45.68
-49.83
-55.72
-63.02
-70.56
-76.44
-78.45
-74.70
-64.28
-47.67
-26.69
-3.96
17.73
36.21
50.24
59.57
64.68
66.43
65.73
63.34
59.89
55.86
51.69
47.83
44.67
42.48
41.34
41.08
41.37
41.89
42.44
42.91
43.33
43.65
43.71
43.25
41.95
39.59
36.12
31.73
26.81
21.83
17.29
13.49
10.46
7.95
5.58
2.93
-0.19
-3.64
-7.02
-9.87
-11.91
-13.23
-14.24
-15.58
-17.77
-21.05
-25.21
-29.79
-34.19
-37.95
-40.90
-43.18
-45.18
-47.39
-50.33
-54.45
-59.94
-66.55
-73.41
-78.96
-81.26
-78.55
-69.87
-55.58
-37.34
-17.69
0.79
16.13
27.41
34.72
38.75
40.35
40.16
38.56
35.80
32.15
28.03
23.97
20.54
18.14
16.98
17.04
18.15
20.05
22.41
24.92
27.21
28.96
29.87
29.80
28.79
26.99
24.68
22.15
19.60
17.07
14.49
11.66
8.43
4.79
0.91
-2.91
-6.34
-9.25
-11.68
-13.95
-16.39
-19.29
-22.67
-26.34
-29.99
-33.33
-36.30
-39.12
-42.19
-46.01
-50.93
-56.88
-63.20
-68.65
-71.53
-70.19
-63.55
-51.60
-35.51
-17.34
0.55
16.16
28.28
36.62
41.53
43.62
43.53
41.79
38.83
35.11
31.13
27.40
24.36
22.28
21.24
21.12
21.76
22.93
24.50
26.37
28.48
30.66
32.65
34.08
34.55
33.80
31.78
28.70
24.95
20.97
17.11
13.59
10.42
7.50
4.65
1.71
-1.41
-4.74
-8.22
-11.66
-14.84
-17.50
-19.45
-20.72
-21.54
-22.47
-24.24
-27.57
-32.80
-39.61
-46.80
-52.55
-54.84
-52.12
-43.93
-31.10
-15.51
0.48
14.74
25.81
33.16
36.94
37.74
36.23
32.97
28.45
23.10
17.37
11.68
6.41
1.80
-2.00
-4.89
-6.75
-7.38
-6.56
-4.26
-0.72
3.52
7.61
10.70
12.12
11.58
9.22
5.55
1.27
-2.97
-6.68
-9.67
-12.04
-14.10
-16.22
-18.71
-21.72
-25.21
-28.96
-32.60
-35.77
-38.23
-40.02
-41.47
-43.24
-46.05
-50.42
-56.27
-62.66
-67.88
-69.83
-66.71
-57.71
-43.34
-25.36
-6.19
11.78
26.86
38.29
46.07
50.69
52.73
52.66
50.91
47.87
44.04
39.93
36.07
32.98
30.97
30.18
30.50
31.59
33.02
34.37
35.41
36.03
36.23
35.96
35.05
33.29
30.49
26.65
21.97
16.82
11.62
6.74
2.42
-1.26
-4.43
-7.36
-10.41
-13.89
-17.93
-22.40
-26.96
-31.20
-34.87
-37.97
-40.82
-43.90
-47.77
-52.94
-59.69
-67.85
-76.67
-84.66
-89.88
-90.40
-84.97
-73.50
-57.26
-38.49
-19.79
-3.36
9.44
18.20
23.19
25.12
24.74
22.75
19.80
16.53
13.52
11.31
10.20
10.22
11.12
12.55
14.20
15.97
18.00
20.46
23.39
26.53
29.33
31.13
31.42
30.01
27.14
23.34
19.25
15.39
11.94
8.77
5.55
1.86
-2.52
-7.55
-12.95
-18.22
-22.96
-26.91
-30.16
-33.13
-36.46
-40.87
-46.87
-54.49
-62.98
-70.82
-75.97
-76.39
-70.76
-58.97
-42.29
-22.96
-3.63
13.43
26.81
36.07
41.52
43.89
43.94
42.31
39.51
35.90
31.83
27.62
23.62
20.19
17.63
16.18
15.92
16.80
18.68
21.29
24.35
27.46
30.18
32.04
32.63
31.75
29.46
26.03
22.00
17.87
14.05
10.64
7.51
4.27
0.46
-4.19
-9.67
-15.64
-21.53
-26.76
-31.00
-34.31
-37.17
-40.42
-44.93
-51.30
-59.53
-68.73
-77.12
-82.40
-82.41
-75.85
-62.81
-44.85
-24.54
-4.66
12.54
25.83
35.02
40.58
43.27
43.75
42.55
40.08
36.82
33.32
30.16
27.82
26.48
26.09
26.40
27.15
28.18
29.45
30.94
32.52
33.90
34.63
34.35
32.83
30.18
26.70
22.76
18.59
14.23
9.59
4.56
-0.79
-6.23
-11.36
-15.82
-19.45
-22.37
-24.97
-27.89
-31.78
-37.09
-43.75
-50.93
-57.04
-60.00
-57.83
-49.35
-34.69
-15.41
5.91
26.46
43.88
56.80
64.88
68.52
68.47
65.51
60.32
53.50
45.67
37.51
29.73
22.98
17.78
14.36
12.69
12.47
13.26
14.55
15.89
16.88
17.25
16.80
15.39
12.95
9.45
4.95
-0.41
-6.42
-12.80
-19.22
-25.32
-30.80
-35.44
-39.19
-42.18
-44.75
-47.44
-50.91
-55.77
-62.39
-70.50
-79.03
-86.06
-89.19
-86.27
-76.14
-59.23
-37.56
-14.18
7.78
25.95
39.23
47.69
52.12
53.48
52.63
50.19
46.78
42.99
39.46
36.69
34.92
34.10
34.02
34.46
35.31
36.53
38.02
39.48
40.49
40.56
39.38
36.86
33.14
28.45
22.93
16.62
9.50
1.68
-6.54
-14.67
-22.19
-28.70
-34.10
-38.62
-42.70
-47.02
-52.26
-58.94
-67.18
-76.37
-85.08
-91.19
-92.44
-87.18
-75.01
-57.07
-35.75
-13.97
5.63
21.32
32.53
39.57
43.29
44.59
44.23
42.75
40.50
37.78
34.91
32.23
30.02
28.47
27.66
27.58
28.17
29.35
31.03
32.98
34.82
36.07
36.24
35.01
32.38
28.59
23.99
18.90
13.45
7.65
1.49
-4.92
-11.31
-17.29
-22.53
-26.88
-30.53
-33.97
-37.95
-43.21
-50.18
-58.62
-67.41
-74.63
-77.95
-75.28
-65.54
-49.12
-27.91
-4.81
17.04
35.09
47.90
55.27
57.95
57.20
54.33
50.44
46.31
42.42
39.06
36.39
34.50
33.40
33.08
33.55
34.77
36.65
39.04
41.70
44.29
46.44
47.83
48.22
47.54
45.86
43.39
40.41
37.20
34.02
31.00
28.22
25.64
23.21
20.83
18.40
15.81
12.94
9.71
6.12
2.27
-1.71
-5.59
-9.22
-12.50
-15.39
-17.96
-20.30
-22.53
-24.84
-27.37
-30.24
-33.47
-36.93
-40.43
-43.79
-46.95
-50.13
-53.80
-58.55
-64.82
-72.52
-80.72
-87.63
-90.94
-88.52
-79.18
-63.16
-42.24
-19.17
3.08
22.14
36.65
46.27
51.43
52.92
51.67
48.61
44.58
40.32
36.40
33.17
30.82
29.45
29.07
29.69
31.23
33.51
36.22
39.03
41.62
43.75
45.23
45.85
45.41
43.73
40.82
36.84
32.20
27.45
23.07
19.41
16.51
14.17
12.07
9.90
7.46
4.72
1.75
-1.30
-4.26
-6.99
-9.45
-11.70
-13.96
-16.49
-19.54
-23.17
-27.22
-31.39
-35.32
-38.73
-41.62
-44.19
-46.95
-50.51
-55.44
-61.96
-69.58
-76.96
-82.05
-82.62
-77.07
-65.02
-47.58
-26.99
-5.96
13.15
28.78
40.30
47.79
51.70
52.60
51.07
47.72
43.26
38.47
34.07
30.68
28.61
27.88
28.25
29.35
30.82
32.45
34.14
35.84
37.43
38.71
39.37
39.09
37.71
35.28
32.07
28.47
24.86
21.50
18.41
15.44
12.32
8.86
5.07
1.14
-2.61
-5.88
-8.60
-10.94
-13.33
-16.21
-19.85
-24.26
-29.18
-34.10
-38.58
-42.32
-45.38
-48.13
-51.23
-55.38
-61.02
-68.06
-75.60
-82.01
-85.26
-83.43
-75.44
-61.43
-42.84
-22.02
-1.57
16.33
30.34
40.03
45.70
48.02
47.70
45.44
41.84
37.49
32.99
28.88
25.60
23.40
22.31
22.23
22.90
24.06
25.46
26.91
28.28
29.46
30.35
30.83
30.72
29.82
27.95
25.03
21.10
16.37
11.23
6.14
1.53
-2.38
-5.59
-8.40
-11.22
-14.42
-18.15
-22.30
-26.62
-30.80
-34.62
-38.04
-41.19
-44.35
-47.93
-52.31
-57.82
-64.34
-71.11
-76.68
-79.12
-76.67
-68.35
-54.43
-36.40
-16.57
2.66
19.37
32.43
41.56
47.01
49.37
49.32
47.52
44.55
40.96
37.25
33.84
31.13
29.32
28.49
28.50
29.12
30.08
31.17
32.25
33.21
33.92
34.15
33.58
31.90
28.92
24.70
19.64
14.30
9.32
5.11
1.63
-1.55
-5.09
-9.48
-14.81
-20.66
-26.29
-31.06
-34.67
-37.31
-39.61
-42.38
-46.37
-52.00
-59.16
-67.07
-74.22
-78.66
-78.51
-72.55
-60.78
-44.49
-25.92
-7.56
8.48
21.01
29.73
35.00
37.51
37.96
36.95
34.95
32.38
29.58
26.85
24.42
22.40
20.83
19.72
19.08
18.94
19.34
20.24
21.42
22.51
23.02
22.54
20.91
18.25
14.89
11.22
7.49
3.71
-0.27
-4.65
-9.49
-14.62
-19.71
-24.41
-28.52
-32.09
-35.46
-39.11
-43.52
-49.00
-55.50
-62.51
-68.96
-73.32
-73.96
-69.56
-59.63
-44.80
-26.82
-8.05
9.11
22.92
32.60
38.34
40.88
41.15
39.97
37.89
35.31
32.51
29.74
27.23
25.18
23.67
22.77
22.46
22.68
23.41
24.57
25.95
27.22
27.95
27.75
26.40
23.96
20.73
17.13
13.49
9.88
6.20
2.21
-2.23
-7.07
-12.06
-16.91
-21.34
-25.24
-28.71
-31.98
-35.47
-39.64
-44.86
-51.14
-57.85
-63.65
-66.74
-65.33
-58.39
-46.09
-29.90
-12.12
4.87
19.26
30.22
37.73
42.26
44.38
44.49
42.96
40.18
36.76
33.38
30.65
28.90
28.06
27.83
27.81
27.79
27.81
28.12
28.97
30.41
32.15
33.62
34.15
33.25
30.79
27.01
22.48
17.88
13.73
10.25
7.32
4.53
1.40
-2.47
-7.14
-12.38
-17.74
-22.68
-26.90
-30.37
-33.44
-36.69
-40.79
-46.26
-53.22
-61.22
-69.09
-75.06
-77.14
-73.74
-64.26
-49.49
-31.43
-12.74
4.06
17.29
26.32
31.43
33.38
33.01
31.00
27.92
24.27
20.57
17.34
14.95
13.57
13.15
13.53
14.54
16.04
17.94
20.07
22.22
24.08
25.34
25.79
25.36
24.15
22.35
20.14
17.67
15.03
12.29
9.51
6.76
4.11
1.56
-0.89
-3.32
-5.79
-8.38
-11.12
-14.00
-16.99
-19.96
-22.80
-25.46
-27.95
-30.42
-33.13
-36.41
-40.65
-46.12
-52.77
-60.01
-66.59
-70.72
-70.56
-64.79
-53.26
-37.12
-18.53
-0.09
16.00
28.40
36.79
41.61
43.62
43.58
42.07
39.51
36.31
32.94
29.88
27.59
26.34
26.12
26.68
27.69
28.86
30.04
31.22
32.36
33.34
33.92
33.78
32.72
30.74
28.04
24.99
21.92
19.01
16.28
13.62
10.89
8.01
5.01
1.99
-0.98
-3.90
-6.88
-10.13
-13.83
-18.03
-22.62
-27.26
-31.55
-35.21
-38.22
-40.91
-43.90
-47.88
-53.32
-60.06
-67.16
-72.96
-75.46
-72.98
-64.75
-51.25
-34.15
-15.81
1.43
15.82
26.53
33.53
37.34
38.66
38.16
36.41
33.89
31.06
28.33
26.11
24.62
23.95
24.02
24.63
25.57
26.67
27.86
29.15
30.51
31.83
32.88
33.32
32.79
31.14
28.41
24.95
21.20
17.64
14.52
11.88
9.49
7.01
4.19
0.95
-2.50
-5.79
-8.57
-10.70
-12.33
-13.90
-15.91
-18.71
-22.39
-26.70
-31.20
-35.38
-38.85
-41.47
-43.34
-44.87
-46.63
-49.29
-53.38
-58.96
-65.38
-71.21
-74.46
-73.18
-66.15
-53.39
-36.28
-17.15
1.43
17.42
29.72
38.14
43.10
45.23
45.12
43.30
40.30
36.69
33.10
30.09
27.99
26.89
26.68
27.13
28.03
29.25
30.69
32.27
33.83
35.07
35.63
35.14
33.42
30.58
27.00
23.24
19.73
16.67
13.91
11.15
8.14
4.81
1.37
-1.89
-4.76
-7.21
-9.50
-11.97
-14.95
-18.56
-22.69
-27.05
-31.26
-35.01
-38.12
-40.70
-43.12
-45.96
-49.91
-55.46
-62.61
-70.59
-77.84
-82.30
-82.04
-75.86
-63.88
-47.47
-28.94
-10.79
4.99
17.23
25.69
30.68
32.80
32.65
30.81
27.81
24.25
20.75
17.89
16.10
15.55
16.16
17.67
19.76
22.13
24.61
27.12
29.58
31.90
33.83
35.02
35.17
34.07
31.73
28.42
24.52
20.50
16.67
13.20
10.04
7.01
3.84
0.28
-3.76
-8.26
-12.95
-17.45
-21.37
-24.54
-27.13
-29.71
-33.04
-37.85
-44.47
-52.56
-61.05
-68.28
-72.38
-71.75
-65.52
-53.88
-38.05
-20.01
-1.97
14.15
27.04
36.18
41.64
43.88
43.48
41.05
37.20
32.54
27.75
23.45
20.18
18.26
17.72
18.33
19.69
21.41
23.25
25.10
27.03
28.98
30.74
31.83
31.69
29.92
26.47
21.76
16.49
11.34
6.74
2.70
-1.14
-5.27
-10.03
-15.45
-21.23
-26.86
-31.82
-35.79
-38.74
-40.93
-42.87
-45.21
-48.63
-53.63
-60.27
-67.91
-75.17
-80.06
-80.55
-75.18
-63.64
-47.00
-27.37
-7.33
10.78
25.43
36.00
42.63
45.90
46.51
45.10
42.25
38.47
34.28
30.12
26.39
23.41
21.32
20.22
20.11
20.88
22.32
24.15
25.97
27.37
27.98
27.51
25.85
23.01
19.18
14.60
9.55
4.27
-1.15
-6.68
-12.33
-18.05
-23.63
-28.79
-33.25
-36.92
-40.03
-43.18
-47.15
-52.65
-59.86
-68.12
-75.87
-80.91
-81.03
-74.78
-61.99
-43.95
-23.02
-1.95
16.89
32.00
42.82
49.57
52.88
53.46
51.97
49.02
45.15
41.00
37.13
34.05
32.04
31.18
31.34
32.30
33.83
35.78
38.01
40.32
42.37
43.64
43.59
41.87
38.46
33.72
28.30
22.82
17.69
12.93
8.21
3.13
-2.60
-8.92
-15.48
-21.77
-27.35
-32.06
-36.08
-39.95
-44.39
-50.15
-57.69
-66.86
-76.66
-85.16
-89.87
-88.39
-79.30
-62.74
-40.61
-15.93
7.99
28.48
44.07
54.43
60.14
62.08
61.21
58.40
54.46
50.15
46.18
43.09
41.11
40.22
40.20
40.73
41.53
42.47
43.52
44.74
46.14
47.55
48.62
48.87
47.81
45.20
41.11
35.97
30.37
24.85
19.66
14.68
9.47
3.55
-3.35
-11.06
-19.00
-26.46
-32.81
-37.89
-42.00
-45.89
-50.49
-56.63
-64.66
-74.22
-84.02
-92.00
-95.72
-93.06
-82.92
-65.73
-43.43
-18.93
4.71
25.05
40.75
51.51
57.79
60.35
59.97
57.36
53.21
48.26
43.32
39.10
36.08
34.36
33.69
33.66
33.91
34.29
34.88
35.76
36.87
37.77
37.84
36.47
33.40
28.90
23.63
18.34
13.57
9.36
5.33
0.92
-4.28
-10.33
-16.90
-23.43
-29.34
-34.33
-38.44
-42.09
-45.90
-50.59
-56.78
-64.71
-73.99
-83.39
-90.86
-94.00
-90.73
-80.08
-62.67
-40.67
-17.21
4.56
22.30
34.97
42.82
46.94
48.77
49.62
50.42
51.69
53.59
56.05
58.87
61.79
64.57
67.02
69.01
70.42
71.22
71.37
70.91
69.90
68.38
66.31
63.53
59.81
54.86
48.46
40.53
31.11
20.36
8.53
-4.10
-17.11
-30.05
-42.37
-53.57
-63.24
-71.19
-77.43
-82.10
-85.20
-86.45
-85.15
-80.29
-70.90
-56.57
-37.78
-16.10
6.16
26.49
42.84
54.06
60.00
61.20
58.55
52.84
44.74
34.80
23.61
11.89
0.53
-9.62
-17.89
-23.94
-27.87
-30.11
-31.28
-31.97
-32.55
-33.11
-33.61
-34.01
-34.43
-35.18
-36.63
-39.01
-42.26
-45.97
-49.58
-52.53
-54.56
-55.73
-56.43
-57.30
-59.00
-62.06
-66.65
-72.34
-78.02
-81.96
-82.15
-76.92
-65.53
-48.52
-27.70
-5.60
15.16
32.58
45.64
54.26
58.97
60.55
59.73
57.09
53.13
48.39
43.44
38.91
35.36
33.18
32.49
33.08
34.52
36.21
37.58
38.27
38.15
37.39
36.28
35.12
34.10
33.14
32.04
30.57
28.58
26.10
23.23
20.07
16.58
12.50
7.38
0.71
-8.08
-19.44
-33.44
-49.58
-66.43
-81.71
-92.61
-96.65
-92.41
-80.22
-62.06
-40.96
-20.03
-1.66
12.84
23.19
29.76
33.12
33.91
32.69
30.09
26.76
23.30
20.21
17.71
15.82
14.39
13.17
12.00
10.80
9.68
8.84
8.45
8.58
9.12
9.74
10.08
9.72
8.36
5.90
2.45
-1.65
-5.94
-9.99
-13.56
-16.70
-19.69
-22.98
-27.03
-32.20
-38.64
-46.03
-53.43
-59.16
-61.14
-57.37
-46.79
-29.84
-8.55
14.00
34.57
50.73
61.43
66.87
68.10
66.40
62.87
58.26
53.08
47.76
42.78
38.60
35.63
34.10
33.93
34.79
36.10
37.24
37.67
37.14
35.61
33.28
30.39
27.09
23.42
19.34
14.79
9.79
4.47
-1.01
-6.45
-11.71
-16.68
-21.30
-25.58
-29.61
-33.62
-37.97
-43.13
-49.47
-57.01
-65.11
-72.39
-76.91
-76.67
-70.29
-57.64
-40.02
-19.86
-0.02
17.08
30.00
38.46
42.99
44.54
43.95
41.80
38.41
34.05
29.13
24.29
20.25
17.68
16.84
17.59
19.33
21.29
22.79
23.39
22.98
21.69
19.66
17.00
13.72
9.79
5.23
0.16
-5.22
-10.70
-16.04
-21.07
-25.65
-29.69
-33.22
-36.33
-39.28
-42.47
-46.33
-51.24
-57.24
-63.79
-69.68
-73.16
-72.37
-66.02
-53.90
-37.09
-17.74
1.58
18.59
31.86
40.95
46.26
48.50
48.43
46.56
43.29
39.00
34.33
30.08
27.08
25.88
26.50
28.47
30.94
33.07
34.29
34.48
33.82
32.61
31.05
29.08
26.50
23.06
18.65
13.36
7.50
1.48
-4.31
-9.53
-14.06
-17.92
-21.31
-24.58
-28.16
-32.54
-38.11
-44.91
-52.44
-59.50
-64.33
-65.03
-60.19
-49.50
-33.93
-15.62
2.83
19.06
31.57
39.86
44.26
45.55
44.53
41.87
38.09
33.65
29.04
24.74
21.17
18.62
17.16
16.68
17.00
17.85
19.00
20.21
21.21
21.72
21.48
20.30
18.10
15.01
11.25
7.07
2.68
-1.82
-6.37
-10.96
-15.51
-19.91
-24.05
-27.87
-31.35
-34.60
-37.84
-41.44
-45.81
-51.27
-57.68
-64.23
-69.38
-71.08
-67.52
-57.77
-42.37
-23.24
-3.15
15.16
29.78
40.02
46.23
49.32
50.20
49.43
47.22
43.73
39.25
34.37
29.87
26.47
24.58
24.17
24.80
25.83
26.65
26.90
26.47
25.47
24.01
22.14
19.77
16.76
12.98
8.41
3.18
-2.50
-8.42
-14.35
-20.13
-25.57
-30.53
-34.93
-38.84
-42.51
-46.43
-51.09
-56.84
-63.52
-70.30
-75.63
-77.62
-74.56
-65.63
-51.27
-33.19
-13.92
3.97
18.59
29.06
35.54
38.71
39.40
38.23
35.64
31.96
27.69
23.45
19.94
17.65
16.76
17.10
18.25
19.75
21.25
22.49
23.39
23.89
23.95
23.50
22.46
20.78
18.42
15.37
11.68
7.44
2.87
-1.70
-5.83
-9.09
-11.11
-11.81
-11.40
-10.40
-9.48
-9.31
-10.29
-12.39
-14.95
-16.72
-16.04
-11.24
-1.26
13.93
33.11
54.09
74.36
91.80
105.23
114.55
120.42
123.73
125.11
124.80
122.74
118.91
113.63
107.64
101.82
96.84
92.71
88.75
83.84
76.86
67.16
54.74
40.11
24.03
7.21
-9.79
-26.46
-42.26
-56.57
-68.91
-79.10
-87.38
-94.42
-101.07
-108.07
-115.78
-124.08
-132.43
-140.09
-146.36
-150.89
-153.70
-155.24
-156.23
-157.50
-159.83
-163.71
-168.99
-174.69
-178.93
-179.30
-173.53
-160.35
-140.15
-114.92
-87.77
-61.90
-39.68
-22.10
-8.86
1.08
8.91
15.51
21.33
26.51
31.15
35.41
39.52
43.66
47.88
52.04
55.88
59.20
61.96
64.36
66.67
69.16
71.83
74.38
76.28
76.96
76.10
73.80
70.56
67.15
64.25
62.21
60.94
59.98
58.78
56.97
54.59
52.17
50.64
51.00
53.99
59.64
67.11
74.71
80.24
81.52
77.00
66.24
50.08
30.58
10.49
-7.33
-20.64
-28.34
-30.62
-28.84
-24.94
-20.91
-18.21
-17.59
-19.17
-22.67
-27.61
-33.51
-39.90
-46.30
-52.17
-57.02
-60.43
-62.13
-62.09
-60.51
-57.70
-54.11
-50.09
-45.89
-41.66
-37.47
-33.47
-29.93
-27.21
-25.60
-25.13
-25.49
-26.10
-26.33
-25.79
-24.47
-22.74
-21.14
-20.12
-19.86
-20.15
-20.54
-20.49
-19.51
-17.29
-13.72
-8.89
-3.12
3.06
9.07
14.55
19.51
24.60
30.90
39.63
51.56
66.63
83.70
100.81
115.65
126.20
131.17
130.25
123.99
113.44
99.84
84.37
68.05
51.90
37.02
24.59
15.57
10.44
8.98
10.33
13.34
16.94
20.54
23.95
27.33
30.91
34.77
38.85
42.91
46.58
49.41
50.79
50.17
47.15
41.72
34.38
26.05
17.80
10.49
4.46
-0.64
-5.77
-12.22
-21.17
-33.30
-48.41
-65.38
-82.26
-96.64
-106.24
-109.49
-105.95
-96.46
-82.91
-67.68
-53.02
-40.70
-31.81
-26.89
-26.08
-29.22
-35.77
-44.83
-55.15
-65.49
-74.86
-82.70
-88.83
-93.20
-95.62
-95.65
-92.79
-86.82
-78.08
-67.48
-56.36
-46.04
-37.45
-31.01
-26.63
-23.99
-22.78
-22.81
-23.99
-26.10
-28.70
-31.12
-32.69
-33.05
-32.39
-31.42
-31.11
-32.31
-35.40
-40.05
-45.28
-49.55
-51.15
-48.53
-40.80
-28.02
-11.36
7.24
25.59
41.94
55.31
65.60
73.14
78.38
81.57
82.84
82.45
80.89
78.92
77.25
76.29
76.02
76.11
76.15
75.92
75.45
74.95
74.62
74.49
74.30
73.58
71.83
68.59
63.60
56.85
48.50
38.88
28.41
17.60
6.98
-2.90
-11.66
-19.28
-26.11
-32.96
-40.82
-50.68
-63.15
-78.28
-95.32
-112.70
-128.27
-139.70
-145.10
-143.52
-135.34
-122.13
-106.15
-89.81
-74.99
-62.78
-53.51
-46.94
-42.54
-39.81
-38.30
-37.69
-37.72
-38.09
-38.38
-38.10
-36.79
-34.15
-30.19
-25.24
-19.86
-14.68
-10.24
-6.88
-4.76
-3.86
-4.02
-4.93
-6.25
-7.63
-8.88
-10.04
-11.36
-13.21
-15.84
-19.20
-22.92
-26.45
-29.29
-31.23
-32.50
-33.75
-35.85
-39.58
-45.19
-52.11
-58.83
-63.15
-62.79
-56.16
-43.03
-24.62
-3.32
18.14
37.41
53.04
64.57
72.10
76.05
76.86
75.00
71.14
66.14
61.00
56.66
53.74
52.41
52.40
53.12
53.86
53.96
52.96
50.67
47.19
42.78
37.73
32.26
26.38
19.94
12.79
4.93
-3.38
-11.69
-19.47
-26.30
-31.92
-36.35
-39.72
-42.30
-44.40
-46.35
-48.33
-50.17
-51.22
-50.30
-46.10
-37.64
-24.86
-8.82
8.55
24.93
38.41
47.87
53.21
55.02
54.17
51.45
47.35
42.14
35.99
29.26
22.56
16.69
12.47
10.47
10.77
12.96
16.22
19.60
22.28
23.76
23.90
22.78
20.62
17.59
13.77
9.20
3.93
-1.89
-7.95
-13.84
-19.14
-23.54
-26.94
-29.48
-31.62
-33.88
-36.89
-41.15
-46.80
-53.37
-59.70
-63.90
-63.81
-57.60
-44.50
-25.18
-1.71
23.00
46.05
65.27
79.60
88.96
93.95
95.31
93.79
89.99
84.53
78.17
71.85
66.62
63.48
63.07
65.51
70.27
76.35
82.60
88.06
92.23
95.04
96.65
97.12
96.14
93.10
87.35
78.52
66.74
52.76
37.71
22.84
9.21
-2.48
-12.01
-19.63
-25.99
-31.92
-38.27
-45.64
-54.06
-62.74
-70.11
-74.06
-72.48
-64.01
-48.61
-27.82
-4.37
18.52
38.07
52.61
61.82
66.47
67.89
67.44
66.12
64.51
62.91
61.43
60.15
59.19
58.58
58.26
57.97
57.37
56.13
54.06
51.26
47.99
44.60
41.28
37.93
34.10
29.17
22.55
13.93
3.38
-8.67
-21.51
-34.46
-46.92
-58.58
-69.37
-79.43
-89.04
-98.56
-108.38
-118.75
-129.54
-139.99
-148.52
-152.90
-150.89
-140.95
-123.05
-98.83
-71.27
-43.76
-19.24
0.52
15.01
24.63
30.28
32.82
33.03
31.55
29.05
26.21
23.73
22.22
22.05
23.30
25.78
29.05
32.53
35.68
38.03
39.32
39.44
38.46
36.52
33.79
30.45
26.58
22.21
17.33
11.96
6.21
0.30
-5.41
-10.62
-15.13
-18.96
-22.43
-26.00
-30.18
-35.44
-42.05
-49.89
-58.29
-65.94
-70.99
-71.53
-66.16
-54.59
-37.91
-18.31
1.55
19.28
33.33
43.09
48.69
50.53
49.02
44.53
37.53
28.83
19.63
11.33
5.23
2.11
2.03
4.37
8.07
12.03
15.48
18.07
19.84
20.99
21.62
21.61
20.65
18.42
14.78
9.89
4.25
-1.45
-6.55
-10.62
-13.55
-15.60
-17.21
-18.86
-20.93
-23.71
-27.36
-31.82
-36.67
-40.98
-43.36
-42.22
-36.38
-25.56
-10.65
6.44
23.34
37.93
48.85
55.69
58.75
58.71
56.20
51.71
45.66
38.61
31.29
24.59
19.38
16.23
15.25
16.08
18.05
20.45
22.67
24.34
25.28
25.39
24.58
22.78
19.99
16.26
11.71
6.49
0.69
-5.59
-12.24
-18.98
-25.50
-31.42
-36.54
-40.93
-44.93
-49.16
-54.27
-60.74
-68.58
-77.19
-85.24
-90.84
-91.94
-86.93
-75.27
-57.72
-36.32
-13.75
7.39
25.20
38.78
48.05
53.44
55.49
54.72
51.68
47.09
41.87
37.07
33.57
31.90
32.10
33.89
36.80
40.41
44.43
48.71
53.18
57.71
62.13
66.13
69.31
71.18
71.25
69.17
64.82
58.39
50.38
41.48
32.30
23.28
14.50
5.69
-3.58
-13.75
-24.97
-36.93
-48.78
-59.10
-66.20
-68.54
-65.10
-55.85
-41.92
-25.30
-8.44
6.43
17.77
25.08
28.66
29.37
28.11
25.55
22.10
18.04
13.67
9.41
5.75
3.08
1.65
1.49
2.45
4.22
6.43
8.65
10.48
11.55
11.65
10.70
8.73
5.80
2.00
-2.56
-7.71
-13.20
-18.72
-24.04
-29.04
-33.75
-38.26
-42.68
-47.11
-51.65
-56.53
-62.06
-68.47
-75.63
-82.77
-88.43
-90.76
-88.12
-79.70
-65.98
-48.64
-30.10
-12.78
1.52
11.93
18.45
21.59
22.08
20.63
17.92
14.60
11.31
8.59
6.79
6.05
6.27
7.22
8.69
10.57
12.76
15.18
17.65
19.87
21.53
22.33
22.15
20.96
18.90
16.07
12.61
8.66
4.40
0.06
-4.17
-8.15
-11.85
-15.31
-18.57
-21.61
-24.43
-27.14
-30.03
-33.47
-37.53
-41.74
-44.80
-44.85
-40.07
-29.42
-13.22
6.85
28.26
48.42
65.51
78.80
88.53
95.46
100.43
104.04
106.62
108.41
109.71
110.95
112.63
115.25
119.26
125.12
133.33
144.29
158.11
174.14
190.73
205.32
215.00
217.42
211.58
198.16
179.20
157.25
134.50
112.21
90.71
69.71
48.66
26.96
4.13
-20.22
-46.23
-73.73
-102.00
-129.87
-155.76
-177.86
-194.25
-203.18
-203.38
-194.57
-177.75
-155.30
-130.48
-106.75
-86.84
-72.18
-62.84
-57.88
-55.93
-55.70
-56.25
-57.01
-57.55
-57.37
-55.89
-52.50
-46.83
-38.98
-29.60
-19.75
-10.59
-3.06
2.41
5.82
7.49
7.68
6.46
3.64
-1.06
-7.71
-16.08
-25.57
-35.39
-44.78
-53.22
-60.52
-66.81
-72.41
-77.78
-83.50
-90.25
-98.56
-108.62
-119.85
-130.61
-138.35
-140.27
-134.21
-119.62
-97.91
-72.08
-45.79
-22.13
-2.96
11.30
21.18
27.48
30.88
31.75
30.46
27.53
23.74
19.93
16.75
14.46
12.96
11.95
11.07
10.09
8.85
7.31
5.51
3.56
1.65
-0.11
-1.75
-3.55
-5.92
-9.30
-13.80
-19.21
-24.96
-30.41
-35.20
-39.39
-43.47
-48.12
-53.91
-61.09
-69.50
-78.50
-87.06
-93.79
-97.15
-95.83
-89.12
-77.25
-61.49
-43.75
-26.09
-10.05
3.58
14.75
23.80
31.05
36.68
40.73
43.34
44.94
46.22
47.92
50.53
54.09
58.10
61.74
64.23
65.21
64.90
63.98
63.25
63.18
63.60
63.81
62.97
60.51
56.41
51.20
45.57
40.11
35.11
30.68
26.76
23.08
18.86
12.73
3.12
-10.74
-27.78
-44.73
-57.07
-60.88
-54.80
-40.88
-23.73
-8.40
1.76
6.24
6.84
6.16
5.98
6.53
6.94
6.11
3.59
-0.29
-4.81
-9.40
-13.83
-18.03
-21.74
-24.31
-24.85
-22.68
-17.61
-10.14
-1.13
8.61
18.69
29.21
40.36
52.01
63.32
72.79
78.81
80.25
76.96
69.85
60.42
50.18
40.05
30.15
19.94
8.64
-4.39
-19.42
-36.23
-54.17
-72.13
-88.63
-102.01
-110.85
-114.50
-113.32
-108.57
-101.88
-94.55
-87.10
-79.25
-70.38
-60.11
-48.65
-36.87
-25.86
-16.50
-9.11
-3.50
0.88
4.57
7.98
11.30
14.60
17.89
21.15
24.30
27.08
29.06
29.67
28.44
25.28
20.74
15.95
12.36
11.22
13.08
17.57
23.67
30.19
36.39
42.24
48.28
55.19
63.21
71.94
80.44
87.68
93.02
96.68
99.77
104.16
111.99
125.03
144.16
169.03
198.04
228.66
257.96
283.08
301.69
312.06
313.24
305.00
287.89
263.19
232.75
198.71
163.19
127.98
94.39
63.21
34.71
8.62
-15.65
-38.81
-61.39
-83.43
-104.54
-124.10
-141.67
-157.26
-171.34
-184.50
-197.10
-209.00
-219.74
-228.79
-235.91
-241.26
-245.12
-247.55
-248.15
-246.17
-241.00
-232.69
-222.16
-211.05
-201.12
-193.52
-188.56
-185.75
-184.25
-183.17
-181.65
-178.47
-171.87
-159.67
-140.02
-112.42
-78.37
-41.23
-5.26
25.87
50.16
67.56
79.29
86.86
91.18
92.40
90.32
85.20
78.18
71.16
66.20
64.61
66.30
69.80
72.76
72.88
68.74
60.19
48.24
34.55
20.84
8.48
-1.67
-9.19
-13.93
-16.05
-15.96
-14.35
-12.08
-9.93
-8.36
-7.35
-6.50
-5.22
-3.10
-0.22
2.72
4.48
3.61
-0.95
-9.40
-20.61
-32.26
-41.32
-44.94
-41.44
-30.89
-15.12
2.77
19.39
31.88
38.53
38.96
33.76
24.16
11.51
-2.85
-17.77
-32.15
-44.92
-55.03
-61.63
-64.29
-63.15
-59.03
-53.08
-46.55
-40.32
-34.67
-29.48
-24.59
-20.23
-17.15
-16.54
-19.51
-26.49
-36.99
-49.67
-62.77
-74.78
-84.82
-92.74
-99.00
-104.39
-109.74
-115.79
-123.01
-131.31
-139.70
-146.23
-148.25
-143.18
-129.38
-106.94
-77.77
-45.13
-12.68
16.59
40.83
59.47
72.81
81.48
86.09
87.06
84.83
80.10
73.95
67.73
62.78
59.98
59.55
61.07
63.70
66.64
69.33
71.61
73.51
74.96
75.65
75.03
72.46
67.50
60.14
50.89
40.66
30.48
21.18
13.14
6.15
-0.46
-7.64
-16.34
-27.17
-40.14
-54.38
-68.06
-78.54
-82.96
-79.07
-66.04
-44.88
-18.26
10.30
37.37
60.44
78.22
90.41
97.30
99.39
97.30
91.75
83.77
74.64
65.72
58.19
52.85
49.98
49.47
51.00
54.23
58.96
65.04
72.22
79.97
87.33
93.09
96.04
95.42
91.20
84.06
75.25
66.03
57.30
49.29
41.57
33.21
23.11
10.47
-4.84
-21.91
-38.71
-52.43
-60.23
-60.13
-51.69
-36.27
-16.50
4.47
23.92
40.05
51.97
59.47
62.61
61.52
56.50
48.18
37.59
26.10
15.15
5.88
-1.04
-5.50
-7.78
-8.32
-7.53
-5.73
-3.22
-0.45
1.81
2.56
0.81
-4.09
-12.04
-22.19
-33.06
-43.08
-51.07
-56.69
-60.53
-63.94
-68.54
-75.70
-85.89
-98.29
-110.72
-119.98
-122.78
-116.74
-101.24
-77.76
-49.44
-20.10
6.79
28.95
45.46
56.43
62.51
64.36
62.50
57.49
50.11
41.46
32.95
25.88
21.16
19.00
19.00
20.48
22.79
25.62
28.87
32.49
36.14
39.03
40.17
38.69
34.29
27.37
18.99
10.50
3.03
-2.87
-7.43
-11.57
-16.62
-23.89
-34.11
-46.97
-60.80
-72.77
-79.49
-78.01
-66.87
-46.74
-20.28
8.58
35.85
58.57
75.31
86.10
91.86
93.68
92.42
88.66
82.90
75.84
68.44
61.73
56.50
53.02
50.98
49.67
48.43
46.89
45.09
43.42
42.16
41.28
40.19
37.98
33.71
26.88
17.74
7.20
-3.42
-12.99
-20.94
-27.52
-33.61
-40.45
-49.25
-60.86
-75.52
-92.61
-110.42
-126.21
-136.67
-138.86
-131.17
-114.10
-90.23
-63.41
-37.54
-15.54
1.29
13.01
20.54
24.96
27.14
27.71
27.15
25.97
24.75
24.03
24.22
25.51
27.86
31.11
35.02
39.35
43.94
48.57
52.97
56.72
59.32
60.18
58.81
54.93
48.58
40.14
30.33
20.00
9.99
0.93
-6.72
-12.69
-16.72
-18.57
-18.10
-15.51
-11.49
-7.28
-4.44
-4.48
-8.18
-15.05
-23.00
-28.57
-27.74
-17.16
4.57
36.15
73.77
112.14
146.10
172.02
188.45
195.93
196.12
190.89
181.89
170.61
158.69
148.19
141.30
139.83
144.51
154.63
168.17
182.29
193.92
200.16
198.32
186.00
161.45
124.42
77.01
24.03
-27.90
-72.20
-104.46
-123.73
-132.35
-134.48
-134.15
-133.78
-133.97
-134.13
-133.54
-131.91
-129.46
-126.46
-122.84
-118.12
-111.69
-103.16
-92.57
-80.47
-67.77
-55.59
-44.97
-36.84
-32.03
-31.12
-34.33
-41.20
-50.29
-59.16
-64.95
-65.18
-58.79
-46.62
-31.15
-15.64
-2.98
4.97
7.67
5.52
-0.70
-10.19
-22.37
-36.73
-52.57
-68.89
-84.22
-96.82
-105.03
-107.73
-104.73
-96.86
-85.66
-72.77
-59.29
-45.47
-30.72
-14.16
4.54
24.53
43.69
59.23
68.88
72.14
70.88
69.05
71.25
80.91
98.78
122.36
146.68
165.91
175.22
172.16
157.01
132.22
101.39
68.05
34.89
3.54
-25.29
-51.25
-74.06
-93.35
-108.92
-120.73
-128.87
-133.23
-133.12
-127.28
-114.35
-93.68
-66.04
-33.86
-0.71
29.76
54.84
73.43
85.88
93.37
97.11
97.89
96.06
91.97
86.33
80.25
74.89
71.00
68.62
67.20
66.13
65.30
65.28
67.06
71.40
78.29
86.79
95.35
102.50
107.32
109.62
109.75
108.18
105.12
100.44
93.70
84.36
71.91
56.12
37.24
16.09
-5.94
-27.23
-46.46
-63.15
-77.74
-91.34
-105.01
-118.98
-132.35
-143.24
-149.42
-149.01
-140.95
-125.16
-102.41
-74.12
-42.21
-9.02
22.85
50.79
72.67
87.14
93.94
93.79
88.13
78.63
66.85
54.02
41.00
28.49
17.29
8.43
3.00
1.87
5.22
12.32
21.65
31.30
39.57
45.44
48.64
49.45
48.37
45.87
42.26
37.81
32.83
27.62
22.46
17.34
12.02
6.11
-0.67
-8.41
-16.90
-25.75
-34.68
-43.54
-52.44
-61.52
-70.84
-80.31
-89.65
-98.53
-106.94
-115.22
-124.09
-134.33
-146.33
-159.80
-173.82
-187.00
-197.94
-205.38
-208.38
-206.46
-199.84
-189.74
-178.44
-168.83
-163.46
-163.42
-167.80
-173.91
-178.34
-178.40
-173.01
-162.88
-149.83
-135.81
-122.27
-109.94
-99.05
-89.76
-82.28
-76.86
-73.60
-72.21
-71.93
-71.79
-70.94
-69.03
-66.43
-64.10
-63.13
-64.31
-67.78
-73.02
-79.08
-84.85
-89.12
-90.59
-87.82
-79.41
-64.48
-43.03
-16.24
13.82
44.85
74.84
102.38
126.42
145.84
159.26
165.33
163.51
154.83
142.08
129.24
120.24
117.74
122.28
132.40
145.42
158.54
169.77
178.12
183.44
185.81
185.01
180.42
171.12
156.42
136.19
111.05
82.27
51.43
20.10
-10.32
-38.61
-63.63
-84.39
-100.27
-111.38
-118.64
-123.54
-127.40
-130.63
-132.26
-130.29
-122.55
-107.93
-87.14
-62.69
-38.12
-16.76
-0.74
9.46
14.65
16.30
15.74
13.88
11.19
8.00
4.82
2.31
1.07
1.38
2.89
4.75
5.99
6.03
4.95
3.49
2.58
2.78
3.88
4.94
4.67
2.09
-3.07
-10.27
-18.44
-26.49
-33.66
-39.63
-44.53
-48.78
-52.98
-57.82
-63.84
-71.02
-78.45
-84.24
-85.89
-81.17
-69.05
-50.25
-27.19
-3.15
18.68
36.05
47.96
54.44
56.05
53.54
47.69
39.40
29.78
20.08
11.55
5.06
1.01
-0.80
-0.89
0.15
1.96
4.43
7.64
11.50
15.62
19.19
21.19
20.79
17.73
12.49
6.21
0.19
-4.56
-7.73
-9.81
-11.89
-15.19
-20.61
-28.22
-37.01
-44.81
-48.64
-45.31
-32.52
-9.82
20.75
54.99
87.60
113.82
130.72
137.84
136.69
129.74
119.27
106.85
93.29
79.14
65.16
52.37
41.82
34.17
29.37
26.80
25.55
24.91
24.58
24.58
24.97
25.44
25.23
23.29
18.81
11.68
2.62
-7.01
-15.76
-22.71
-27.80
-31.74
-35.72
-40.89
-47.87
-56.42
-65.37
-72.70
-75.99
-73.13
-63.01
-45.99
-23.97
0.07
23.00
42.30
56.65
65.91
70.71
71.95
70.38
66.49
60.67
53.35
45.12
36.67
28.69
21.80
16.48
13.03
11.52
11.64
12.60
13.30
12.59
9.69
4.50
-2.25
-9.28
-15.03
-18.14
-17.79
-14.02
-7.87
-1.33
3.00
2.64
-3.78
-15.87
-31.20
-45.88
-55.78
-57.84
-51.05
-36.59
-17.23
3.77
23.63
40.60
53.82
63.04
68.12
69.01
65.83
59.22
50.39
40.94
32.45
25.96
21.83
19.78
19.26
19.74
20.88
22.42
23.96
24.85
24.29
21.58
16.51
9.42
1.20
-7.09
-14.58
-20.80
-25.87
-30.41
-35.36
-41.74
-50.18
-60.49
-71.38
-80.41
-84.68
-81.75
-70.67
-52.48
-29.92
-6.56
14.36
30.67
41.43
46.53
46.18
40.72
30.73
17.35
2.48
-11.53
-22.45
-28.88
-30.58
-28.43
-23.92
-18.45
-13.00
-8.01
-3.63
-0.14
2.00
2.21
0.18
-3.83
-8.98
-14.15
-18.39
-21.36
-23.44
-25.53
-28.64
-33.46
-39.91
-47.01
-52.97
-55.65
-53.23
-44.89
-31.23
-14.19
3.50
19.25
31.28
38.99
42.68
42.99
40.35
34.78
26.13
14.52
0.74
-13.72
-27.00
-37.52
-44.50
-48.12
-49.41
-49.66
-49.94
-50.72
-51.72
-51.97
-50.06
-44.52
-34.34
-19.47
-1.12
18.32
35.98
49.41
57.45
60.41
59.86
57.95
56.96
59.02
66.15
80.04
101.53
129.85
162.11
193.54
218.50
231.99
230.78
213.91
182.51
139.34
88.48
35.10
-14.95
-56.10
-84.41
-98.78
-101.20
-95.89
-87.56
-79.66
-73.44
-68.20
-62.42
-55.02
-46.13
-36.94
-29.03
-23.44
-20.17
-18.33
-16.62
-14.17
-10.94
-7.79
-5.89
-5.99
-7.75
-9.57
-9.08
-3.99
6.86
22.99
42.31
61.82
78.49
90.24
96.27
97.05
93.68
87.35
78.83
68.51
56.61
43.49
29.81
16.44
4.15
-6.68
-16.08
-24.55
-32.69
-41.06
-49.86
-58.90
-67.60
-75.12
-80.62
-83.45
-83.36
-80.64
-75.99
-70.44
-65.16
-61.36
-60.18
-62.60
-69.17
-79.63
-92.53
-105.11
-113.82
-115.18
-107.03
-89.36
-64.49
-36.40
-9.43
12.97
29.05
38.85
43.60
44.98
44.47
42.95
40.76
37.86
33.98
28.86
22.34
14.46
5.51
-3.90
-12.83
-20.15
-24.72
-25.80
-23.34
-18.21
-12.08
-6.92
-4.36
-5.20
-9.21
-15.37
-22.49
-29.78
-37.10
-44.90
-53.77
-63.88
-74.51
-83.91
-89.62
-89.15
-80.89
-64.76
-42.40
-16.77
8.70
31.05
48.49
60.46
67.33
69.93
69.11
65.67
60.45
54.48
48.86
44.53
41.98
41.11
41.28
41.66
41.61
40.95
39.89
38.82
37.93
36.97
35.25
31.97
26.54
19.01
10.09
0.98
-7.07
-13.26
-17.50
-20.44
-23.23
-27.16
-33.19
-41.66
-51.97
-62.54
-71.00
-74.74
-71.67
-60.95
-43.45
-21.50
1.83
23.63
42.01
56.17
66.16
72.24
74.64
73.42
68.93
62.03
54.17
47.14
42.45
40.93
42.52
46.36
51.25
56.08
60.23
63.61
66.55
69.36
72.02
73.99
74.28
71.92
66.41
58.06
47.95
37.56
28.15
20.30
13.62
6.91
-1.66
-14.02
-31.70
-55.04
-82.53
-110.49
-133.60
-146.25
-144.51
-127.69
-98.81
-63.64
-28.71
0.79
22.18
35.29
41.41
42.14
38.66
31.78
22.41
11.92
2.08
-5.37
-9.34
-9.69
-7.10
-2.72
2.36
7.41
12.01
15.96
18.93
20.50
20.21
17.81
13.41
7.49
0.86
-5.58
-11.07
-15.13
-17.81
-19.63
-21.49
-24.26
-28.32
-33.23
-37.78
-40.35
-39.47
-34.39
-25.29
-13.17
0.48
14.03
25.98
35.19
40.90
42.86
41.33
36.90
30.36
22.43
13.68
4.60
-4.25
-12.19
-18.47
-22.50
-24.04
-23.38
-21.20
-18.45
-16.06
-14.75
-14.92
-16.65
-19.72
-23.76
-28.36
-33.25
-38.29
-43.52
-49.18
-55.65
-63.32
-72.31
-82.13
-91.36
-97.81
-98.95
-92.85
-78.98
-58.56
-34.28
-9.51
12.68
30.31
42.63
49.95
53.11
53.19
51.17
47.94
44.29
40.94
38.45
37.23
37.44
39.04
41.80
45.48
49.87
54.73
59.65
63.81
66.06
65.09
59.89
50.22
36.75
20.92
4.43
-11.33
-25.65
-38.66
-51.03
-63.54
-76.54
-89.55
-101.04
-108.79
-110.45
-104.43
-90.52
-70.17
-46.05
-21.36
1.09
19.46
33.02
42.00
47.11
49.15
48.82
46.63
42.99
38.31
33.01
27.56
22.40
17.84
14.09
11.18
9.11
7.80
7.06
6.56
5.74
3.95
0.67
-4.23
-10.33
-16.81
-22.76
-27.56
-31.20
-34.36
-38.07
-43.39
-50.85
-59.98
-69.20
-76.01
-77.66
-72.10
-58.77
-38.90
-15.26
8.80
30.32
47.44
59.52
66.84
70.09
69.96
67.12
62.28
56.29
50.09
44.54
40.20
37.18
35.25
34.01
33.10
32.35
31.78
31.51
31.52
31.52
30.95
29.11
25.44
19.87
12.86
5.33
-1.73
-7.62
-12.18
-15.89
-19.63
-24.48
-31.25
-40.21
-50.78
-61.45
-69.93
-73.72
-70.82
-60.48
-43.61
-22.56
-0.46
19.75
36.09
47.79
55.11
58.76
59.48
57.80
54.12
48.97
43.12
37.54
33.11
30.37
29.33
29.54
30.27
30.89
31.04
30.75
30.30
29.95
29.69
29.10
27.48
24.18
18.95
12.09
4.49
-2.78
-8.87
-13.51
-17.09
-20.48
-24.62
-30.26
-37.73
-46.80
-56.58
-65.54
-71.61
-72.67
-67.17
-54.83
-36.90
-15.92
5.07
23.46
37.74
47.59
53.57
56.46
56.88
55.16
51.54
46.43
40.51
34.71
29.93
26.81
25.56
25.97
27.46
29.31
30.89
31.77
31.78
30.96
29.41
27.18
24.27
20.60
16.14
10.90
5.04
-1.26
-7.75
-14.16
-20.24
-25.76
-30.60
-34.81
-38.59
-42.38
-46.74
-52.23
-59.16
-67.24
-75.34
-81.57
-83.65
-79.69
-68.95
-52.24
-31.74
-10.34
9.25
25.16
36.66
43.97
47.79
48.93
48.03
45.64
42.18
38.12
33.96
30.17
27.05
24.80
23.39
22.72
22.63
22.97
23.65
24.49
25.24
25.53
24.95
23.21
20.27
16.37
11.95
7.47
3.20
-0.83
-4.87
-9.19
-13.95
-19.01
-24.02
-28.54
-32.33
-35.45
-38.31
-41.53
-45.80
-51.53
-58.64
-66.37
-73.17
-77.06
-76.05
-68.89
-55.59
-37.59
-17.30
2.51
19.59
32.66
41.46
46.41
48.21
47.53
44.91
40.91
36.11
31.24
27.01
24.02
22.56
22.61
23.90
26.00
28.48
30.94
33.08
34.61
35.24
34.65
32.62
29.11
24.38
18.94
13.40
8.23
3.57
-0.79
-5.29
-10.34
-16.04
-22.15
-28.14
-33.42
-37.71
-41.07
-43.97
-47.15
-51.33
-57.03
-64.30
-72.52
-80.34
-85.87
-86.99
-82.10
-70.65
-53.57
-33.11
-12.20
6.39
20.80
30.42
35.75
37.85
37.80
36.34
33.88
30.69
27.20
24.04
21.95
21.45
22.62
25.04
27.94
30.56
32.47
33.68
34.50
35.29
36.14
36.74
36.54
35.01
31.90
27.39
22.02
16.44
11.22
6.58
2.46
-1.45
-5.48
-9.92
-14.78
-19.88
-24.86
-29.33
-33.05
-36.01
-38.53
-41.12
-44.38
-48.84
-54.78
-62.09
-70.07
-77.36
-82.13
-82.48
-76.99
-65.36
-48.53
-28.57
-8.02
10.78
26.21
37.52
44.68
48.08
48.32
46.08
42.19
37.50
32.90
29.15
26.73
25.87
26.45
28.17
30.59
33.28
35.90
38.22
40.11
41.40
41.87
41.27
39.36
36.13
31.81
26.91
21.97
17.40
13.33
9.57
5.77
1.53
-3.33
-8.71
-14.26
-19.58
-24.29
-28.26
-31.66
-34.92
-38.65
-43.45
-49.70
-57.35
-65.70
-73.32
-78.26
-78.56
-72.85
-60.97
-44.11
-24.51
-4.80
12.75
26.77
36.77
42.94
45.74
45.67
43.21
38.96
33.71
28.36
23.78
20.61
19.12
19.22
20.57
22.67
25.03
27.21
28.89
29.79
29.79
28.79
26.76
23.75
19.87
15.37
10.54
5.66
0.86
-3.88
-8.73
-13.86
-19.29
-24.83
-30.15
-34.87
-38.89
-42.39
-45.94
-50.32
-56.21
-63.81
-72.53
-80.93
-86.86
-88.16
-83.27
-71.89
-55.09
-35.12
-14.65
3.90
18.89
29.65
36.28
39.40
39.77
38.16
35.22
31.52
27.59
23.92
20.92
18.89
17.95
18.02
18.86
20.10
21.35
22.33
22.89
23.03
22.80
22.21
21.16
19.44
16.79
13.06
8.29
2.75
-3.07
-8.62
-13.41
-17.24
-20.16
-22.53
-24.91
-27.91
-32.05
-37.61
-44.45
-51.85
-58.49
-62.60
-62.45
-56.85
-45.67
-30.01
-11.94
6.13
22.10
34.69
43.50
48.80
51.12
50.95
48.72
44.81
39.79
34.39
29.42
25.56
23.23
22.43
22.84
23.93
25.16
26.14
26.69
26.78
26.49
25.83
24.68
22.78
19.76
15.33
9.46
2.45
-5.05
-12.27
-18.55
-23.61
-27.61
-31.10
-34.85
-39.58
-45.80
-53.56
-62.34
-70.95
-77.58
-80.13
-76.90
-67.11
-51.36
-31.61
-10.57
9.01
25.16
36.99
44.62
48.77
50.30
49.88
47.91
44.71
40.61
36.15
31.99
28.74
26.81
26.27
26.88
28.16
29.63
30.90
31.72
31.96
31.54
30.36
28.37
25.47
21.62
16.80
11.06
4.60
-2.26
-9.07
-15.37
-20.84
-25.39
-29.23
-32.80
-36.69
-41.51
-47.77
-55.65
-64.78
-73.97
-81.26
-84.31
-81.06
-70.54
-53.41
-31.85
-8.97
12.17
29.44
41.98
50.04
54.45
56.08
55.50
53.17
49.52
45.18
40.94
37.53
35.40
34.56
34.71
35.38
36.13
36.69
36.94
36.85
36.40
35.54
34.14
32.00
28.87
24.52
18.87
12.05
4.53
-3.10
-10.19
-16.32
-21.36
-25.56
-29.38
-33.39
-38.17
-44.19
-51.70
-60.45
-69.47
-77.03
-80.96
-79.22
-70.67
-55.63
-35.85
-14.10
6.74
24.41
37.72
46.58
51.51
53.22
52.35
49.38
44.81
39.34
33.86
29.29
26.31
25.11
25.35
26.28
27.09
27.30
26.84
26.09
25.47
25.12
24.72
23.51
20.66
15.71
8.84
0.90
-7.01
-13.92
-19.39
-23.60
-27.23
-31.15
-36.20
-42.88
-51.21
-60.52
-69.40
-75.86
-77.78
-73.54
-62.68
-46.12
-25.98
-5.01
14.24
30.01
41.54
48.91
52.70
53.61
52.29
49.28
45.10
40.31
35.57
31.53
28.78
27.63
28.02
29.59
31.72
33.77
35.22
35.82
35.60
34.69
33.24
31.28
28.64
25.07
20.36
14.51
7.87
1.01
-5.42
-10.91
-15.31
-18.87
-22.11
-25.69
-30.25
-36.25
-43.88
-52.89
-62.30
-70.43
-75.03
-74.01
-66.10
-51.55
-32.13
-10.68
9.79
27.02
39.82
48.13
52.51
53.67
52.23
48.71
43.69
37.93
32.32
27.70
24.60
23.18
23.23
24.33
26.03
27.96
29.88
31.54
32.74
33.24
32.87
31.59
29.51
26.84
23.80
20.53
17.06
13.38
9.49
5.48
1.56
-2.03
-5.11
-7.67
-9.91
-12.20
-14.90
-18.23
-22.16
-26.43
-30.67
-34.58
-38.08
-41.36
-44.80
-48.92
-54.21
-60.95
-68.98
-77.42
-84.57
-88.21
-86.14
-77.06
-61.18
-40.31
-17.43
4.28
22.35
35.52
43.74
47.75
48.46
46.68
42.98
37.88
32.06
26.43
21.95
19.43
19.20
21.09
24.42
28.33
31.99
34.86
36.72
37.64
37.80
37.37
36.36
34.66
32.02
28.28
23.45
17.82
11.93
6.37
1.58
-2.31
-5.46
-8.29
-11.21
-14.51
-18.30
-22.46
-26.73
-30.75
-34.20
-36.91
-38.96
-40.73
-42.81
-45.83
-50.24
-56.09
-62.71
-68.75
-72.22
-71.01
-63.53
-49.24
-29.05
-5.17
19.51
42.17
60.72
74.08
82.08
85.21
84.18
79.85
73.14
65.08
56.72
49.02
42.66
37.94
34.70
32.55
30.95
29.42
27.62
25.35
22.45
18.85
14.51
9.53
4.10
-1.44
-6.80
-11.77
-16.29
-20.44
-24.27
-27.79
-30.92
-33.56
-35.63
-37.17
-38.39
-39.52
-40.87
-42.66
-44.93
-47.60
-50.43
-53.15
-55.53
-57.47
-59.05
-60.56
-62.49
-65.46
-69.97
-76.06
-83.01
-89.15
-92.18
-89.83
-80.74
-65.00
-44.31
-21.46
0.59
19.50
34.01
43.89
49.64
52.01
51.73
49.45
45.82
41.45
37.04
33.17
30.32
28.73
28.40
29.16
30.70
32.74
34.96
37.09
38.86
40.04
40.39
39.75
38.01
35.26
31.66
27.50
23.05
18.57
14.21
10.03
6.02
2.18
-1.44
-4.86
-8.12
-11.41
-14.96
-18.95
-23.41
-28.10
-32.65
-36.69
-39.99
-42.62
-44.89
-47.33
-50.59
-55.24
-61.45
-68.75
-75.80
-80.56
-80.79
-74.86
-62.42
-44.66
-23.97
-3.16
15.36
30.15
40.76
47.43
50.68
51.03
48.93
44.94
39.77
34.31
29.45
25.88
23.95
23.60
24.48
26.11
28.10
30.25
32.54
35.00
37.51
39.68
40.92
40.62
38.46
34.53
29.45
24.04
19.11
15.10
12.02
9.45
6.83
3.65
-0.25
-4.70
-9.23
-13.27
-16.37
-18.38
-19.54
-20.46
-21.92
-24.68
-29.16
-35.13
-41.55
-46.60
-48.17
-44.35
-34.19
-18.07
2.31
24.31
45.10
62.31
74.49
81.17
82.68
79.82
73.49
64.52
53.61
41.35
28.38
15.40
3.28
-7.10
-15.03
-20.15
-22.59
-22.98
-22.21
-21.17
-20.52
-20.54
-21.19
-22.32
-23.85
-25.84
-28.43
-31.74
-35.69
-40.08
-44.62
-49.02
-53.06
-56.63
-59.65
-62.19
-64.46
-66.85
-70.01
-74.53
-80.73
-88.33
-96.14
-102.20
-104.20
-100.14
-89.07
-71.48
-49.28
-25.30
-2.42
17.10
32.04
42.21
48.13
50.61
50.46
48.33
44.81
40.49
36.02
32.08
29.26
27.97
28.28
29.91
32.36
35.05
37.53
39.54
41.05
42.08
42.58
42.24
40.65
37.40
32.33
25.69
18.13
10.51
3.62
-2.07
-6.53
-10.08
-13.26
-16.74
-21.11
-26.75
-33.65
-41.18
-47.96
-52.07
-51.52
-44.90
-31.99
-13.88
7.22
28.76
48.45
64.79
77.12
85.39
89.90
91.06
89.29
85.12
79.24
72.41
65.50
59.21
54.02
50.06
47.13
44.78
42.47
39.78
36.49
32.67
28.43
23.77
18.41
11.84
3.48
-6.98
-19.29
-32.70
-46.17
-58.72
-69.77
-79.31
-87.75
-95.79
-104.08
-113.02
-122.61
-132.21
-140.48
-145.57
-145.48
-138.70
-124.88
-105.09
-81.64
-57.48
-35.38
-17.23
-3.87
4.81
9.43
10.80
9.65
6.70
2.66
-1.69
-5.50
-8.05
-8.84
-7.70
-4.76
-0.37
5.01
10.87
16.68
21.92
26.04
28.58
29.23
28.02
25.28
21.58
17.55
13.66
10.05
6.56
2.82
-1.49
-6.48
-11.90
-17.21
-21.83
-25.36
-27.80
-29.61
-31.66
-34.88
-39.91
-46.68
-54.16
-60.36
-62.69
-58.74
-47.07
-27.79
-2.74
25.08
52.41
76.51
95.83
109.99
119.45
124.96
127.21
126.77
124.15
119.96
114.97
110.05
105.93
103.04
101.41
100.72
100.51
100.31
99.83
98.93
97.57
95.69
93.14
89.69
85.05
79.03
71.58
62.88
53.24
43.14
33.07
23.52
14.93
7.65
1.97
-2.02
-4.41
-5.50
-5.79
-5.81
-6.04
-6.71
-7.81
-9.13
-10.33
-11.16
-11.50
-11.43
-11.17
-10.97
-10.89
-10.85
-10.60
-9.99
-9.01
-7.89
-7.03
-6.76
-7.21
-8.23
-9.46
-10.51
-11.09
-11.13
-10.81
-10.45
-10.48
-11.24
-12.91
-15.39
-18.29
-21.05
-23.15
-24.36
-24.91
-25.51
-27.15
-30.80
-36.93
-45.15
-54.06
-61.40
-64.62
-61.65
-51.63
-35.26
-14.67
7.24
27.67
44.56
56.98
64.93
69.02
70.04
68.71
65.67
61.57
57.10
53.03
50.12
48.96
49.83
52.68
57.16
62.73
68.86
75.10
81.14
86.62
91.15
94.21
95.33
94.27
91.16
86.43
80.73
74.56
68.15
61.45
54.28
46.51
38.22
29.58
20.87
12.25
3.77
-4.58
-12.92
-21.33
-29.87
-38.53
-47.20
-55.60
-63.28
-69.76
-74.63
-77.81
-79.61
-80.71
-81.89
-83.89
-87.05
-91.31
-96.23
-101.18
-105.58
-109.17
-112.01
-114.56
-117.46
-121.34
-126.63
-133.27
-140.53
-147.04
-150.95
-150.33
-143.84
-131.06
-112.85
-91.03
-67.99
-46.03
-26.87
-11.40
0.18
8.19
13.13
15.55
15.98
14.99
13.18
11.16
9.41
8.19
7.53
7.29
7.33
7.58
8.07
8.82
9.73
10.57
10.99
10.67
9.48
7.41
4.62
1.36
-2.11
-5.51
-8.59
-11.17
-13.14
-14.49
-15.31
-15.58
-15.30
-14.36
-12.72
-10.42
-7.61
-4.49
-1.16
2.34
6.04
9.87
13.63
17.01
19.75
21.75
23.14
24.17
25.04
25.82
26.32
26.21
25.14
22.84
19.25
14.58
9.42
4.65
1.39
0.61
2.90
8.16
15.56
23.80
31.45
37.37
40.92
41.99
40.86
38.01
33.92
29.00
23.57
17.84
11.93
5.93
-0.04
-5.80
-10.99
-15.19
-17.93
-18.91
-18.06
-15.59
-11.93
-7.55
-2.90
1.75
6.21
10.39
14.15
17.31
19.64
20.96
21.13
20.18
18.31
15.83
13.04
10.25
7.60
5.09
2.52
-0.46
-4.20
-8.91
-14.52
-20.63
-26.64
-32.02
-36.56
-40.55
-44.69
-49.85
-56.74
-65.63
-76.16
-87.32
-97.69
-105.70
-110.03
-109.99
-105.78
-98.47
-89.79
-81.57
-75.18
-71.20
-69.26
-68.38
-67.32
-65.07
-61.05
-55.17
-47.67
-39.01
-29.66
-20.07
-10.73
-2.10
5.39
11.45
16.05
19.44
22.05
24.32
26.56
28.71
30.43
31.20
30.56
28.37
24.91
20.78
16.74
13.43
11.11
9.64
8.58
7.37
5.60
3.15
0.23
-2.75
-5.34
-7.30
-8.66
-9.73
-10.98
-12.89
-15.75
-19.55
-23.90
-28.08
-31.04
-31.67
-29.05
-22.64
-12.51
0.71
16.00
32.19
48.21
63.35
77.15
89.46
100.22
109.29
116.42
121.20
123.31
122.62
119.41
114.21
107.73
100.42
92.41
83.54
73.58
62.68
51.49
41.08
32.44
26.07
21.72
18.51
15.42
11.78
7.51
3.03
-1.03
-4.19
-6.27
-7.43
-7.98
-8.24
-8.48
-8.91
-9.67
-10.79
-12.18
-13.66
-14.96
-15.89
-16.38
-16.56
-16.77
-17.52
-19.35
-22.67
-27.46
-33.09
-38.31
-41.57
-41.51
-37.41
-29.61
-19.33
-8.36
1.56
9.23
14.19
16.64
17.15
16.37
14.78
12.65
10.11
7.25
4.18
1.02
-2.09
-5.07
-7.88
-10.43
-12.61
-14.28
-15.25
-15.43
-14.90
-13.95
-12.98
-12.38
-12.40
-13.05
-14.09
-15.13
-15.83
-15.99
-15.74
-15.35
-15.21
-15.59
-16.55
-17.88
-19.20
-20.10
-20.37
-20.07
-19.61
-19.59
-20.61
-23.00
-26.57
-30.58
-33.80
-34.88
-32.79
-27.16
-18.51
-7.99
2.90
12.84
20.97
26.92
30.73
32.55
32.54
30.82
27.59
23.22
18.25
13.31
9.00
5.80
4.00
3.69
4.70
6.67
9.07
11.23
12.55
12.54
10.92
7.62
2.71
-3.72
-11.54
-20.50
-30.20
-40.01
-49.18
-56.89
-62.63
-66.27
-68.21
-69.20
-70.08
-71.55
-73.98
-77.49
-82.01
-87.37
-93.23
-98.91
-103.37
-105.24
-103.23
-96.55
-85.24
-70.22
-53.00
-35.15
-17.93
-2.08
12.19
24.92
36.23
46.10
54.40
60.91
65.56
68.50
70.22
71.49
73.15
75.84
79.68
84.17
88.33
90.92
90.89
87.63
81.15
72.00
61.10
49.43
37.88
27.01
17.14
8.26
0.18
-7.36
-14.62
-21.70
-28.55
-34.93
-40.51
-45.00
-48.30
-50.60
-52.36
-54.22
-56.68
-59.78
-62.93
-64.92
-64.27
-59.67
-50.54
-37.31
-21.30
-4.39
11.52
24.93
35.01
41.55
44.84
45.43
44.00
41.24
37.80
34.26
31.06
28.48
26.61
25.40
24.76
24.59
24.86
25.54
26.56
27.72
28.73
29.24
28.98
27.79
25.73
22.96
19.74
16.28
12.78
9.35
6.12
3.16
0.50
-1.89
-4.08
-6.14
-8.09
-9.94
-11.67
-13.37
-15.13
-16.94
-18.45
-18.79
-16.66
-10.59
0.65
17.62
40.04
66.67
95.48
123.91
149.19
168.82
181.06
185.21
181.88
172.66
159.68
144.88
129.54
113.99
97.74
79.79
59.15
35.32
8.68
-19.36
-46.56
-70.35
-88.52
-99.86
-104.51
-103.94
-100.41
-96.22
-93.06
-91.62
-91.74
-92.75
-93.96
-94.93
-95.53
-95.72
-95.37
-94.31
-92.34
-89.58
-86.51
-83.92
-82.57
-82.80
-84.16
-85.38
-84.66
-80.23
-70.97
-56.86
-38.99
-19.29
0.16
17.63
32.13
43.41
51.69
57.34
60.66
61.85
61.13
58.85
55.60
52.08
48.93
46.64
45.34
44.81
44.56
43.98
42.49
39.74
35.60
30.19
23.78
16.66
9.19
1.71
-5.41
-11.86
-17.44
-22.12
-26.02
-29.34
-32.19
-34.57
-36.32
-37.29
-37.51
-37.36
-37.47
-38.62
-41.50
-46.33
-52.73
-59.53
-64.97
-67.10
-64.24
-55.60
-41.52
-23.59
-4.15
14.27
29.61
40.68
47.25
49.82
49.26
46.47
42.20
37.05
31.50
26.02
21.07
17.11
14.51
13.43
13.86
15.57
18.21
21.34
24.52
27.29
29.21
29.88
29.06
26.76
23.24
18.99
14.49
10.10
5.89
1.71
-2.69
-7.50
-12.72
-18.09
-23.21
-27.68
-31.30
-34.21
-36.94
-40.29
-45.06
-51.63
-59.62
-67.74
-73.99
-76.25
-72.96
-63.66
-49.18
-31.43
-12.80
4.44
18.72
29.34
36.31
40.14
41.45
40.80
38.71
35.60
31.96
28.29
25.14
22.94
21.95
22.20
23.46
25.34
27.37
29.11
30.25
30.57
29.92
28.19
25.27
21.14
15.94
9.93
3.49
-3.01
-9.28
-15.13
-20.40
-24.95
-28.58
-31.21
-32.92
-34.04
-35.17
-37.01
-40.14
-44.80
-50.69
-56.80
-61.57
-63.21
-60.17
-51.71
-38.14
-20.88
-2.02
16.25
32.17
44.75
53.65
59.06
61.36
60.92
58.13
53.44
47.44
40.91
34.71
29.70
26.51
25.49
26.58
29.42
33.37
37.70
41.73
44.92
46.99
47.82
47.49
46.14
44.00
41.28
38.14
34.65
30.81
26.63
22.16
17.54
12.97
8.65
4.60
0.62
-3.75
-9.12
-16.08
-24.85
-35.00
-45.31
-53.89
-58.59
-57.67
-50.43
-37.53
-20.90
-3.13
13.30
26.64
36.14
41.93
44.65
45.03
43.68
41.06
37.57
33.63
29.73
26.36
23.94
22.67
22.60
23.54
25.23
27.33
29.55
31.68
33.52
34.94
35.76
35.80
34.95
33.17
30.52
27.10
23.03
18.47
13.56
8.50
3.49
-1.29
-5.79
-10.09
-14.38
-18.97
-24.16
-30.20
-37.18
-44.81
-52.38
-58.69
-62.31
-61.83
-56.30
-45.37
-29.42
-9.42
13.38
37.52
61.55
83.96
103.24
117.89
126.64
128.77
124.46
114.99
102.58
89.97
79.59
72.85
69.74
68.92
68.29
65.84
60.34
51.56
40.28
27.84
15.73
5.18
-3.05
-8.73
-12.24
-14.41
-16.30
-18.95
-23.05
-28.71
-35.50
-42.60
-49.15
-54.56
-58.72
-61.96
-64.93
-68.27
-72.23
-76.37
-79.49
-79.80
-75.41
-64.96
-48.27
-26.46
-1.80
22.96
45.38
63.85
77.81
87.56
93.78
97.30
98.86
99.08
98.50
97.49
96.12
94.06
90.55
84.68
75.66
63.11
47.29
28.95
9.24
-10.55
-29.23
-45.83
-59.75
-70.85
-79.55
-86.63
-93.12
-99.97
-107.76
-116.56
-126.00
-135.39
-144.02
-151.42
-157.42
-162.24
-166.41
-170.52
-174.97
-179.65
-183.64
-185.26
-182.44
-173.32
-157.07
-134.27
-106.92
-77.91
-50.24
-26.22
-7.04
7.16
17.03
23.41
27.02
28.37
27.80
25.68
22.57
19.16
16.13
14.04
13.10
13.22
14.11
15.43
16.97
18.65
20.48
22.43
24.31
25.70
26.14
25.24
22.95
19.53
15.59
11.80
8.70
6.51
5.12
4.11
2.95
1.07
-2.07
-6.92
-13.62
-21.79
-30.34
-37.48
-41.08
-39.35
-31.49
-18.05
-0.88
17.50
34.63
48.75
59.04
65.49
68.53
68.69
66.40
62.08
56.26
49.69
43.31
37.99
34.38
32.69
32.66
33.78
35.46
37.24
38.96
40.60
42.18
43.58
44.39
44.11
42.23
38.54
33.24
26.93
20.36
14.22
8.90
4.36
0.30
-3.80
-8.49
-14.29
-21.47
-29.95
-38.99
-47.08
-52.20
-52.33
-46.19
-33.84
-16.76
2.58
21.45
37.71
50.21
58.72
63.63
65.46
64.62
61.41
56.23
49.77
42.95
36.76
31.91
28.62
26.56
25.10
23.66
21.95
20.14
18.63
17.75
17.52
17.50
16.91
14.90
10.81
4.46
-3.82
-13.23
-22.82
-31.70
-39.44
-46.16
-52.53
-59.55
-68.13
-78.63
-90.56
-102.43
-112.01
-116.93
-115.36
-106.63
-91.60
-72.38
-51.76
-32.36
-16.04
-3.54
5.23
10.82
13.80
14.54
13.23
10.16
5.84
1.11
-3.04
-5.70
-6.21
-4.31
-0.09
6.15
13.98
22.89
32.23
41.15
48.57
53.25
54.15
50.76
43.44
33.46
22.70
13.12
6.14
2.24
0.91
1.00
1.06
-0.17
-3.57
-9.47
-17.57
-26.82
-35.55
-41.55
-42.78
-37.99
-27.21
-11.90
5.51
22.41
36.79
47.64
54.90
59.08
60.75
60.32
58.03
54.16
49.18
43.89
39.18
35.87
34.37
34.52
35.69
36.92
37.36
36.46
34.21
30.91
26.96
22.57
17.59
11.67
4.45
-4.10
-13.57
-23.20
-32.15
-39.74
-45.71
-50.22
-53.74
-56.97
-60.64
-65.39
-71.51
-78.74
-85.98
-91.43
-92.92
-88.61
-77.67
-60.72
-39.78
-17.67
2.88
19.90
32.54
40.87
45.49
47.05
46.04
42.88
38.04
32.24
26.43
21.55
18.28
16.80
16.79
17.62
18.63
19.40
19.86
20.14
20.35
20.31
19.50
17.23
12.94
6.50
-1.57
-10.27
-18.48
-25.31
-30.43
-34.15
-37.28
-40.80
-45.60
-52.06
-59.92
-68.13
-74.97
-78.46
-76.81
-69.07
-55.50
-37.58
-17.56
2.21
19.95
34.72
46.27
54.62
59.72
61.36
59.39
54.08
46.35
37.66
29.58
23.29
19.32
17.41
16.86
16.85
16.79
16.42
15.75
14.87
13.75
12.06
9.34
5.11
-0.84
-8.33
-16.74
-25.23
-32.95
-39.37
-44.36
-48.17
-51.40
-54.78
-59.02
-64.55
-71.15
-77.70
-82.22
-82.16
-75.22
-60.17
-37.37
-8.81
22.47
53.31
81.28
105.15
124.84
141.03
154.66
166.45
176.70
185.16
191.15
193.59
191.24
182.97
168.20
147.08
120.73
91.05
60.37
31.11
5.14
-16.43
-33.48
-46.83
-57.92
-68.29
-79.10
-90.74
-102.74
-114.02
-123.38
-130.03
-133.88
-135.63
-136.48
-137.67
-140.09
-143.84
-148.04
-150.89
-150.03
-143.28
-129.43
-108.75
-83.11
-55.47
-28.97
-6.11
11.85
24.78
33.33
38.38
40.63
40.56
38.58
35.26
31.37
27.75
25.04
23.46
22.77
22.43
21.94
21.05
19.84
18.54
17.30
16.04
14.38
11.86
8.16
3.21
-2.71
-9.12
-15.39
-20.95
-25.40
-28.60
-30.74
-32.38
-34.27
-37.20
-41.70
-47.69
-54.27
-59.75
-61.97
-58.98
-49.66
-34.29
-14.55
6.96
27.48
44.86
57.91
66.40
70.70
71.37
68.94
63.98
57.19
49.55
42.15
36.00
31.71
29.33
28.41
28.30
28.37
28.28
27.99
27.63
27.25
26.66
25.46
23.11
19.27
13.94
7.53
0.74
-5.63
-11.05
-15.36
-18.87
-22.22
-26.15
-31.26
-37.76
-45.34
-53.02
-59.34
-62.53
-61.05
-54.06
-41.77
-25.54
-7.48
10.06
25.13
36.63
44.30
48.51
49.87
48.91
46.01
41.52
35.98
30.16
25.01
21.37
19.75
20.13
22.08
24.90
28.00
30.93
33.42
35.15
35.73
34.62
31.42
26.07
19.00
11.07
3.32
-3.40
-8.69
-12.74
-16.23
-20.07
-25.13
-31.87
-40.16
-49.09
-57.08
-62.23
-62.88
-58.16
-48.30
-34.55
-18.85
-3.19
10.81
22.15
30.43
35.68
38.14
38.21
36.42
33.38
29.80
26.35
23.58
21.79
21.07
21.24
21.99
23.01
24.06
25.04
25.90
26.57
26.85
26.41
24.87
21.95
17.64
12.26
6.35
0.58
-4.52
-8.73
-12.21
-15.52
-19.38
-24.49
-31.11
-38.81
-46.35
-51.86
-53.37
-49.43
-39.68
-25.02
-7.35
11.06
28.18
42.67
53.99
62.14
67.47
70.40
71.41
71.11
70.26
69.69
70.19
72.27
76.13
81.66
88.61
96.73
105.86
115.80
126.15
136.17
144.83
151.01
153.87
153.11
149.01
142.29
133.86
124.50
114.77
104.94
95.03
84.77
73.79
61.74
48.64
35.12
22.44
12.24
5.88
3.87
5.47
8.79
11.31
10.66
5.30
-5.19
-20.11
-37.96
-56.91
-75.20
-91.45
-104.88
-115.22
-122.69
-127.75
-130.95
-132.72
-133.33
-132.81
-131.08
-127.98
-123.53
-117.96
-111.81
-105.81
-100.62
-96.61
-93.66
-91.27
-88.70
-85.33
-80.83
-75.33
-69.29
-63.49
-58.68
-55.33
-53.30
-51.63
-48.68
-42.64
-32.25
-17.38
0.77
19.96
37.71
52.02
61.89
67.35
69.09
68.01
64.87
60.19
54.36
47.79
40.96
34.42
28.57
23.62
19.45
15.70
11.99
8.13
4.27
0.86
-1.50
-2.33
-1.53
0.58
3.37
6.17
8.56
10.54
12.54
15.28
19.53
25.87
34.62
45.73
58.75
72.79
86.69
99.15
109.22
116.52
121.40
124.65
127.06
128.93
129.90
129.17
125.94
119.89
111.35
100.99
89.46
76.97
63.16
47.44
29.31
8.81
-13.39
-36.24
-58.54
-79.34
-98.07
-114.44
-128.36
-139.80
-148.80
-155.47
-160.12
-163.17
-165.16
-166.66
-168.23
-170.42
-173.62
-178.01
-183.43
-189.39
-195.15
-199.99
-203.42
-205.27
-205.73
-205.20
-204.07
-202.53
-200.30
-196.49
-189.80
-178.86
-162.84
-141.94
-117.53
-91.79
-67.09
-45.27
-27.24
-13.00
-2.01
6.47
13.01
18.03
21.81
24.65
26.86
28.70
30.39
32.12
34.04
36.21
38.61
41.05
43.22
44.78
45.50
45.35
44.46
43.01
41.05
38.48
35.08
30.68
25.34
19.43
13.51
8.21
3.89
0.61
-1.98
-4.40
-7.25
-10.94
-15.72
-21.52
-28.00
-34.43
-39.65
-42.24
-40.86
-34.71
-23.95
-9.83
5.65
20.32
32.49
41.34
46.87
49.62
50.23
49.18
46.85
43.68
40.25
37.34
35.67
35.71
37.51
40.76
44.92
49.44
53.89
58.06
61.92
65.58
69.22
72.98
76.89
80.78
84.30
87.09
88.92
89.85
90.22
90.54
91.26
92.54
94.16
95.58
96.09
94.98
91.71
85.99
77.88
67.91
57.10
46.91
38.90
34.38
33.88
36.92
42.16
47.77
52.00
53.70
52.52
48.75
43.08
36.23
28.72
20.99
13.38
6.34
0.39
-3.99
-6.51
-7.19
-6.48
-5.04
-3.60
-2.77
-2.85
-3.87
-5.65
-7.89
-10.40
-13.10
-16.09
-19.56
-23.63
-28.28
-33.27
-38.20
-42.66
-46.36
-49.28
-51.65
-53.96
-56.79
-60.74
-66.20
-73.18
-81.13
-88.93
-94.96
-97.60
-95.65
-88.80
-77.79
-64.23
-50.15
-37.44
-27.36
-20.38
-16.26
-14.35
-13.94
-14.46
-15.61
-17.24
-19.16
-21.12
-22.72
-23.56
-23.39
-22.18
-20.21
-17.96
-15.97
-14.67
-14.36
-15.07
-16.63
-18.72
-20.97
-23.09
-24.98
-26.68
-28.40
-30.36
-32.71
-35.47
-38.57
-41.86
-45.20
-48.53
-51.95
-55.71
-60.13
-65.57
-72.14
-79.54
-86.81
-92.44
-94.63
-91.81
-83.22
-69.24
-51.40
-31.95
-13.23
2.93
15.55
24.49
30.18
33.24
34.25
33.58
31.59
28.65
25.33
22.34
20.35
19.79
20.74
22.85
25.47
27.91
29.57
30.18
29.75
28.51
26.74
24.65
22.22
19.29
15.64
11.15
5.93
0.36
-5.09
-10.02
-14.30
-18.12
-21.93
-26.23
-31.42
-37.63
-44.65
-51.84
-58.11
-62.03
-62.18
-57.49
-47.69
-33.55
-16.77
0.54
16.35
29.28
38.73
44.83
48.04
48.96
48.05
45.72
42.38
38.53
34.72
31.55
29.47
28.67
29.08
30.37
32.06
33.65
34.71
34.97
34.38
33.02
31.04
28.60
25.78
22.54
18.75
14.29
9.22
3.71
-1.84
-6.98
-11.32
-14.75
-17.43
-19.82
-22.59
-26.42
-31.79
-38.72
-46.60
-54.07
-59.32
-60.45
-56.07
-45.87
-30.77
-12.78
5.59
22.04
34.97
43.82
48.82
50.73
50.43
48.64
45.92
42.65
39.13
35.68
32.60
30.15
28.49
27.62
27.39
27.58
27.95
28.30
28.54
28.64
28.61
28.35
27.62
26.11
23.48
19.61
14.69
9.16
3.63
-1.36
-5.49
-8.77
-11.51
-14.17
-17.31
-21.42
-26.84
-33.63
-41.36
-48.96
-54.88
-57.33
-54.87
-46.96
-34.21
-18.30
-1.45
14.27
27.40
37.36
44.19
48.24
49.82
49.12
46.37
42.02
36.86
31.89
28.03
25.82
25.26
25.89
27.05
28.19
29.01
29.51
29.80
29.92
29.73
28.94
27.16
24.07
19.60
13.89
7.41
0.75
-5.48
-10.82
-15.12
-18.63
-21.85
-25.46
-30.11
-36.18
-43.52
-51.32
-58.13
-62.05
-61.33
-54.91
-42.83
-26.45
-7.98
10.08
25.63
37.48
45.39
49.85
51.68
51.60
50.16
47.66
44.36
40.56
36.73
33.38
31.02
29.91
30.03
31.02
32.34
33.45
33.93
33.66
32.70
31.20
29.28
26.96
24.08
20.46
15.97
10.65
4.74
-1.42
-7.44
-12.98
-17.91
-22.27
-26.36
-30.63
-35.62
-41.78
-49.29
-57.82
-66.37
-73.31
-76.70
-74.83
-66.81
-53.02
-35.08
-15.44
3.35
19.31
31.42
39.60
44.45
46.75
47.20
46.29
44.30
41.46
38.03
34.43
31.13
28.55
26.98
26.46
26.73
27.39
27.98
28.12
27.64
26.50
24.82
22.71
20.26
17.41
14.00
9.83
4.79
-1.04
-7.30
-13.49
-19.10
-23.86
-27.81
-31.36
-35.12
-39.68
-45.44
-52.48
-60.35
-68.03
-73.95
-76.25
-73.29
-64.13
-49.07
-29.69
-8.49
11.75
28.74
41.22
49.06
52.93
53.85
52.79
50.41
47.15
43.36
39.46
35.97
33.43
32.20
32.30
33.41
34.94
36.31
37.11
37.27
36.97
36.43
35.72
34.62
32.69
29.46
24.67
18.42
11.23
3.84
-2.99
-8.73
-13.24
-16.81
-19.96
-23.41
-27.79
-33.54
-40.72
-48.89
-56.96
-63.33
-66.10
-63.60
-55.01
-40.73
-22.38
-2.41
16.63
32.72
44.77
52.61
56.76
58.02
57.20
54.96
51.82
48.19
44.44
40.97
38.13
36.20
35.33
35.49
36.49
38.09
40.00
41.94
43.59
44.55
44.45
43.00
40.18
36.22
31.51
26.41
21.11
15.58
9.74
3.59
-2.64
-8.57
-13.89
-18.52
-22.74
-27.06
-32.11
-38.35
-45.96
-54.56
-63.18
-70.26
-73.87
-72.24
-64.38
-50.51
-32.14
-11.72
8.10
25.21
38.40
47.50
52.98
55.61
56.11
55.09
53.00
50.26
47.35
44.78
43.05
42.58
43.57
45.98
49.48
53.56
57.65
61.27
64.11
66.10
67.33
67.96
68.13
67.81
66.86
65.01
62.05
57.93
52.81
47.04
40.99
34.95
29.01
23.07
16.88
10.10
2.32
-6.85
-17.55
-29.38
-41.22
-51.26
-57.48
-58.27
-53.12
-42.89
-29.64
-15.93
-4.06
4.46
9.13
10.24
8.46
4.53
-0.98
-7.64
-15.04
-22.78
-30.34
-37.19
-42.88
-47.11
-49.87
-51.41
-52.20
-52.85
-53.84
-55.47
-57.79
-60.63
-63.77
-67.11
-70.79
-75.14
-80.50
-87.08
-94.78
-103.20
-111.67
-119.36
-125.36
-128.87
-129.30
-126.42
-120.54
-112.53
-103.54
-94.78
-87.00
-80.36
-74.28
-67.79
-59.89
-49.97
-38.08
-24.90
-11.49
1.04
11.85
20.45
26.64
30.40
31.82
31.17
28.98
26.03
23.22
21.33
20.82
21.79
24.09
27.54
32.07
37.72
44.56
52.53
61.33
70.48
79.41
87.56
94.56
100.23
104.68
108.27
111.48
114.83
118.66
123.09
127.97
133.00
137.85
142.18
145.61
147.74
148.13
146.44
142.55
136.53
128.60
118.89
107.45
94.27
79.64
64.34
49.78
37.74
29.85
27.04
29.16
35.05
42.78
50.20
55.40
57.00
54.24
46.98
35.64
21.14
4.92
-11.17
-25.19
-35.62
-41.88
-44.62
-45.51
-46.61
-49.48
-54.63
-61.40
-68.47
-74.62
-79.26
-82.67
-85.55
-88.54
-91.75
-94.72
-96.74
-97.26
-96.31
-94.50
-92.83
-92.24
-93.25
-95.78
-99.27
-103.00
-106.40
-109.35
-112.13
-115.29
-119.37
-124.70
-131.24
-138.47
-145.37
-150.50
-152.30
-149.35
-140.90
-127.11
-109.17
-89.02
-68.88
-50.79
-36.10
-25.43
-18.67
-15.26
-14.44
-15.39
-17.30
-19.40
-20.89
-21.10
-19.51
-15.93
-10.49
-3.69
3.73
10.89
16.98
21.34
23.64
23.87
22.37
19.64
16.17
12.29
8.04
3.34
-1.88
-7.57
-13.43
-18.98
-23.73
-27.37
-29.92
-31.74
-33.45
-35.77
-39.26
-44.04
-49.59
-54.73
-57.76
-56.90
-50.93
-39.62
-23.98
-6.05
11.77
27.28
39.07
46.63
50.23
50.46
48.00
43.49
37.53
30.79
24.00
17.90
13.03
9.68
7.79
7.07
7.20
7.90
9.13
10.98
13.50
16.52
19.55
21.78
22.36
20.69
16.69
10.82
4.00
-2.75
-8.67
-13.49
-17.48
-21.32
-25.88
-31.87
-39.57
-48.56
-57.65
-64.96
-68.35
-66.07
-57.31
-42.64
-23.93
-3.84
14.97
30.54
41.97
49.26
52.98
53.75
52.01
48.04
42.23
35.20
27.88
21.25
16.07
12.65
10.82
10.06
9.82
9.73
9.72
9.88
10.24
10.62
10.45
9.00
5.64
0.16
-7.03
-14.98
-22.50
-28.69
-33.26
-36.65
-39.90
-44.15
-50.23
-58.26
-67.44
-76.08
-81.99
-83.00
-77.63
-65.64
-48.20
-27.63
-6.70
12.16
27.49
39.01
47.41
53.75
58.98
63.51
67.23
69.70
70.54
69.68
67.51
64.76
62.24
60.53
59.78
59.73
59.90
59.91
59.55
58.78
57.53
55.50
52.16
46.91
39.33
29.53
18.16
6.28
-4.94
-14.57
-22.18
-27.94
-32.52
-36.86
-41.93
-48.37
-56.16
-64.38
-71.29
-74.64
-72.38
-63.38
-47.88
-27.63
-5.30
16.24
34.67
48.69
57.98
62.96
64.37
62.98
59.50
54.57
48.87
43.13
38.10
34.40
32.36
32.00
32.97
34.75
36.81
38.79
40.54
42.11
43.56
44.84
45.68
45.65
44.31
41.36
36.76
30.81
24.10
17.36
11.25
6.20
2.30
-0.65
-3.11
-5.70
-9.08
-13.85
-20.24
-27.85
-35.42
-40.92
-42.12
-37.28
-26.00
-9.39
10.13
29.75
47.07
60.69
70.32
76.27
79.11
79.21
76.78
71.97
64.99
56.20
46.06
35.03
23.63
12.34
1.63
-8.18
-17.01
-25.12
-33.03
-41.26
-50.13
-59.54
-68.93
-77.48
-84.38
-89.11
-91.67
-92.61
-92.87
-93.57
-95.71
-99.74
-105.14
-110.13
-111.78
-106.72
-92.24
-67.44
-33.78
5.33
45.78
84.13
118.57
148.94
175.99
200.41
222.18
240.48
253.94
261.06
260.47
251.11
232.49
205.12
170.76
132.45
93.91
58.63
29.00
5.91
-10.95
-22.55
-29.93
-33.91
-35.25
-34.89
-34.02
-33.86
-35.24
-38.25
-42.26
-46.20
-49.10
-50.59
-50.98
-51.18
-52.28
-55.25
-60.56
-68.07
-76.94
-85.63
-92.08
-94.05
-89.59
-77.68
-58.78
-35.06
-10.08
12.05
27.89
35.76
36.18
31.51
24.86
18.81
14.54
11.77
9.24
5.65
0.29
-6.67
-14.42
-21.95
-28.45
-33.48
-36.97
-39.10
-40.11
-40.10
-38.95
-36.19
-31.13
-23.11
-11.92
1.88
16.85
30.85
41.64
47.56
48.06
43.92
36.90
29.07
22.15
16.99
13.51
11.07
8.85
6.34
3.49
0.78
-0.89
-0.29
3.88
12.83
27.13
46.31
68.57
90.90
109.80
122.21
126.36
122.23
111.29
95.86
78.36
60.72
44.19
29.56
17.32
7.75
0.69
-4.59
-9.41
-15.34
-23.59
-34.60
-47.84
-62.14
-76.29
-89.61
-102.06
-114.11
-126.19
-138.19
-149.32
-158.24
-163.57
-164.27
-160.00
-151.11
-138.56
-123.70
-108.08
-93.14
-79.92
-68.74
-59.00
-49.34
-38.15
-24.24
-7.49
11.07
29.58
46.08
59.16
68.32
73.80
76.10
75.66
72.67
67.18
59.34
49.46
38.01
25.48
12.34
-0.92
-13.64
-25.00
-34.14
-40.42
-43.69
-44.39
-43.36
-41.65
-40.12
-39.39
-39.72
-41.16
-43.62
-46.85
-50.49
-54.06
-57.19
-59.72
-61.95
-64.45
-67.76
-71.74
-75.26
-76.09
-71.54
-59.34
-38.66
-10.56
22.12
55.62
86.25
111.38
129.79
141.59
147.63
148.97
146.40
140.31
130.81
117.97
102.17
84.18
65.13
46.39
29.27
14.78
3.51
-4.54
-9.91
-13.66
-17.07
-21.36
-27.25
-34.63
-42.64
-50.03
-55.75
-59.41
-61.49
-63.14
-65.70
-70.17
-76.86
-85.21
-93.87
-100.90
-104.33
-102.63
-95.24
-82.80
-66.91
-49.64
-32.89
-17.97
-5.59
3.90
10.21
12.99
12.01
7.44
-0.04
-9.37
-19.40
-29.18
-38.11
-45.80
-51.82
-55.69
-56.97
-55.49
-51.63
-46.36
-40.96
-36.68
-34.28
-33.93
-35.27
-37.68
-40.69
-44.16
-48.36
-53.84
-61.16
-70.52
-81.46
-92.59
-101.71
-106.23
-103.87
-93.42
-75.28
-51.43
-24.87
1.15
24.01
42.18
55.22
63.49
67.76
68.78
67.21
63.51
58.02
51.12
43.32
35.30
27.97
22.23
18.80
17.87
19.09
21.61
24.29
26.11
26.38
24.85
21.64
17.08
11.61
5.62
-0.58
-6.83
-13.26
-20.33
-28.65
-38.64
-50.00
-61.34
-70.21
-73.68
-69.35
-56.31
-35.65
-10.25
16.15
40.04
59.04
72.24
79.93
83.05
82.63
79.48
74.21
67.41
59.74
51.92
44.74
38.81
34.54
32.08
31.36
32.10
33.85
35.95
37.68
38.32
37.42
34.79
30.64
25.41
19.58
13.47
7.15
0.28
-7.73
-17.51
-29.38
-42.84
-56.39
-67.57
-73.52
-71.91
-61.90
-44.53
-22.61
0.23
20.53
35.92
45.44
49.32
48.49
44.00
36.75
27.46
16.78
5.41
-5.82
-16.04
-24.47
-30.49
-33.82
-34.47
-32.82
-29.50
-25.33
-21.22
-18.02
-16.33
-16.42
-18.10
-20.90
-24.20
-27.57
-31.03
-35.10
-40.72
-48.88
-60.08
-73.80
-88.31
-100.83
-108.26
-108.18
-99.68
-83.75
-62.90
-40.36
-19.00
-0.59
14.32
26.18
35.88
44.30
51.93
58.73
64.19
67.76
69.20
68.99
68.39
68.96
71.79
76.78
82.68
87.87
91.62
95.15
101.64
115.02
137.95
170.23
208.33
246.40
278.16
298.76
305.88
299.59
281.66
254.41
220.16
181.12
139.71
98.79
61.40
29.99
5.76
-11.62
-23.54
-31.33
-35.55
-35.96
-32.43
-25.99
-19.16
-15.25
-16.69
-23.72
-34.01
-43.87
-49.95
-50.66
-46.40
-38.74
-29.24
-18.90
-8.24
2.14
11.18
17.51
20.10
18.76
14.25
7.98
1.18
-5.50
-12.33
-20.22
-30.25
-43.09
-58.61
-75.73
-92.45
-106.11
-113.85
-113.15
-102.57
-82.32
-54.47
-22.68
8.68
35.71
55.90
68.49
74.32
75.05
72.42
67.73
61.70
54.62
46.71
38.21
29.48
20.98
13.14
6.33
0.79
-3.29
-5.81
-6.70
-6.00
-3.93
-1.05
1.73
3.36
2.87
-0.22
-5.74
-12.99
-21.08
-29.33
-37.57
-46.13
-55.56
-66.17
-77.67
-89.07
-98.69
-104.53
-104.81
-98.35
-85.02
-65.88
-42.87
-18.48
4.95
25.60
42.35
54.79
62.94
67.10
67.75
65.61
61.56
56.64
51.83
47.85
45.03
43.35
42.48
42.06
41.77
41.32
40.48
38.91
36.17
31.77
25.30
16.74
6.51
-4.51
-15.28
-24.95
-33.20
-40.41
-47.50
-55.61
-65.58
-77.52
-90.46
-102.43
-110.76
-112.83
-106.90
-92.75
-71.91
-47.31
-22.46
-0.47
16.64
28.15
34.36
36.01
33.92
28.75
21.10
11.73
1.60
-8.16
-16.46
-22.47
-25.78
-26.44
-24.95
-22.05
-18.64
-15.51
-13.34
-12.52
-13.20
-15.33
-18.68
-23.00
-27.94
-33.26
-38.74
-44.43
-50.59
-57.66
-65.95
-75.23
-84.35
-91.20
-93.18
-88.01
-74.67
-53.98
-28.52
-1.88
22.37
41.69
54.91
62.14
64.27
62.33
57.21
49.65
40.33
30.11
19.96
10.88
3.64
-1.35
-4.04
-4.69
-3.75
-1.83
0.40
2.25
3.04
2.28
-0.27
-4.52
-10.10
-16.48
-23.16
-29.74
-36.18
-42.80
-50.18
-59.00
-69.41
-80.70
-91.00
-97.56
-97.52
-88.94
-71.59
-47.24
-19.20
8.65
32.96
51.67
64.13
70.78
72.53
70.37
65.19
57.82
49.22
40.42
32.37
25.78
20.98
17.91
16.30
15.85
16.20
17.02
17.88
18.25
17.55
15.34
11.43
5.91
-0.76
-8.02
-15.33
-22.31
-28.93
-35.48
-42.58
-50.88
-60.90
-72.48
-84.52
-94.83
-100.58
-99.10
-88.83
-70.10
-45.17
-17.65
8.62
30.56
46.48
56.05
59.85
58.81
53.88
45.95
36.05
25.35
15.17
6.80
1.27
-0.80
0.66
5.23
12.07
20.07
28.01
34.68
39.02
40.19
37.70
31.55
22.32
11.09
-0.75
-11.92
-21.65
-29.94
-37.61
-45.91
-55.97
-67.97
-80.77
-91.80
-97.72
-95.48
-83.45
-62.21
-34.48
-4.35
24.00
47.41
64.38
74.95
80.05
80.79
78.06
72.49
64.72
55.66
46.48
38.40
32.34
28.63
27.06
27.10
28.24
30.15
32.72
35.92
39.54
43.06
45.63
46.27
44.07
38.57
29.98
19.24
7.89
-2.47
-10.75
-16.96
-22.36
-29.06
-39.08
-53.28
-70.46
-87.38
-99.52
-102.35
-92.69
-69.44
-33.87
10.60
58.92
105.22
143.74
169.96
181.62
179.21
165.73
145.57
123.11
101.46
82.00
64.75
49.06
34.39
20.45
7.22
-5.41
-17.64
-29.82
-42.22
-55.04
-68.42
-82.57
-97.74
-114.13
-131.70
-149.85
-167.44
-183.01
-195.24
-203.48
-208.17
-210.91
-213.98
-219.38
-227.67
-237.22
-244.15
-243.26
-229.76
-201.04
-157.77
-103.89
-45.51
10.81
59.72
97.97
124.66
140.78
148.46
150.42
149.53
148.45
149.36
153.59
161.42
172.09
184.06
195.60
205.29
212.44
217.07
219.60
220.20
218.31
212.38
200.12
179.21
148.24
107.47
59.31
7.93
-41.61
-84.63
-118.09
-141.23
-155.53
-164.01
-170.01
-175.99
-182.66
-188.74
-191.48
-187.70
-175.00
-152.74
-122.34
-86.93
-50.47
-16.76
11.32
32.18
45.40
51.43
51.28
46.28
38.00
28.11
18.21
9.63
3.25
-0.58
-1.99
-1.34
0.95
4.58
9.32
14.91
20.87
26.42
30.54
32.29
31.12
27.06
20.85
13.57
6.31
-0.27
-6.09
-11.81
-18.44
-27.06
-38.28
-51.69
-65.67
-77.44
-83.67
-81.47
-69.39
-48.03
-20.02
10.81
40.49
65.90
85.26
98.05
104.58
105.51
101.58
93.61
82.54
69.51
55.88
42.99
32.05
23.89
18.86
16.81
17.09
18.79
20.87
22.34
22.49
20.91
17.53
12.60
6.50
-0.29
-7.40
-14.68
-22.22
-30.43
-39.91
-51.22
-64.39
-78.54
-91.53
-100.29
-101.60
-93.18
-74.71
-48.15
-17.31
13.38
40.08
60.44
73.81
80.71
82.17
79.20
72.53
62.78
50.79
37.69
24.93
13.97
6.02
1.75
1.12
3.49
7.78
12.70
17.02
19.76
20.33
18.51
14.47
8.63
1.54
-6.25
-14.37
-22.79
-31.92
-42.44
-55.03
-69.68
-85.15
-98.85
-107.28
-107.07
-96.34
-75.54
-47.53
-16.72
12.35
36.27
53.43
63.82
68.32
67.85
63.06
54.29
41.97
27.03
10.96
-4.40
-17.29
-26.48
-31.61
-33.15
-32.15
-29.89
-27.47
-25.60
-24.55
-24.20
-24.29
-24.54
-24.70
-24.64
-24.34
-23.81
-23.14
-22.26
-20.70
-17.47
-11.03
0.28
17.59
40.89
68.80
98.85
128.15
154.12
174.91
189.41
197.07
197.65
191.35
179.02
162.31
143.45
124.70
107.73
93.25
81.09
70.60
61.24
52.94
46.03
41.05
38.25
37.34
37.47
37.42
36.00
32.38
26.40
18.53
9.62
0.59
-7.95
-15.86
-23.43
-31.32
-40.32
-51.21
-64.45
-79.80
-95.94
-110.37
-119.81
-121.09
-112.29
-93.63
-67.58
-38.25
-10.01
13.64
30.87
41.46
46.33
46.82
44.18
39.49
33.67
27.55
21.88
17.18
13.66
11.15
9.33
7.89
6.71
5.83
5.29
4.92
4.24
2.54
-0.82
-6.15
-13.23
-21.40
-29.80
-37.67
-44.61
-50.78
-56.78
-63.56
-71.90
-82.00
-92.96
-102.61
-107.94
-105.95
-94.71
-74.21
-46.54
-15.36
15.25
41.84
62.30
75.97
83.22
84.94
82.13
75.79
66.99
56.86
46.66
37.48
30.11
24.84
21.57
19.92
19.50
19.99
21.17
22.74
24.23
24.88
23.91
20.67
14.96
7.18
-1.80
-10.92
-19.25
-26.36
-32.44
-38.29
-45.08
-53.88
-65.18
-78.27
-91.09
-100.51
-103.16
-96.63
-80.38
-56.11
-27.34
1.82
27.78
48.34
62.85
71.71
75.75
75.76
72.35
66.20
58.18
49.46
41.21
34.31
29.16
25.64
23.33
21.85
21.03
20.92
21.63
22.97
24.38
24.91
23.56
19.63
13.10
4.62
-4.61
-13.30
-20.56
-26.19
-30.71
-35.23
-40.99
-48.91
-59.13
-70.68
-81.43
-88.44
-88.80
-80.53
-63.41
-39.23
-11.34
16.31
40.32
58.60
70.60
76.91
78.57
76.63
71.82
64.76
56.12
46.83
37.95
30.43
24.80
21.06
18.76
17.24
16.08
15.17
14.73
15.01
15.96
17.07
17.38
15.83
11.68
4.90
-3.81
-13.21
-21.96
-29.18
-34.65
-38.96
-43.13
-48.38
-55.58
-64.99
-75.93
-86.71
-94.81
-97.52
-92.68
-79.48
-58.87
-33.40
-6.51
18.41
38.87
53.59
62.41
65.91
64.90
60.26
52.88
43.74
33.97
24.70
16.89
11.10
7.35
5.27
4.20
3.65
3.35
3.36
3.79
4.55
5.15
4.70
2.22
-2.93
-10.71
-20.33
-30.49
-39.86
-47.61
-53.64
-58.65
-63.83
-70.40
-79.14
-89.98
-101.74
-112.21
-118.58
-118.21
-109.58
-92.87
-70.07
-44.39
-19.31
2.42
19.30
31.02
38.07
41.11
40.71
37.31
31.44
23.92
15.88
8.59
3.11
0.08
-0.48
0.97
3.64
6.75
9.73
12.35
14.61
16.53
17.93
18.32
17.03
13.51
7.63
-0.08
-8.65
-16.90
-23.91
-29.29
-33.31
-36.78
-40.80
-46.45
-54.43
-64.64
-75.89
-85.94
-91.84
-90.85
-81.34
-63.51
-39.43
-12.49
13.72
36.34
53.81
65.87
73.09
76.30
76.18
73.26
67.99
61.07
53.47
46.30
40.59
36.94
35.33
35.22
35.81
36.35
36.46
36.07
35.40
34.67
33.88
32.75
30.78
27.40
22.28
15.41
7.18
-1.68
-10.44
-18.43
-25.35
-31.26
-36.51
-41.68
-47.42
-54.31
-62.69
-72.30
-82.03
-89.83
-93.06
-89.27
-77.11
-57.03
-31.37
-3.62
22.60
44.57
60.98
71.84
77.90
80.03
78.88
74.88
68.51
60.50
51.90
43.90
37.56
33.50
31.77
31.89
33.08
34.53
35.66
36.17
36.07
35.44
34.24
32.20
28.90
23.91
17.06
8.56
-0.96
-10.66
-19.72
-27.65
-34.34
-40.05
-45.27
-50.63
-56.72
-64.05
-72.80
-82.51
-91.89
-98.84
-100.81
-95.68
-82.51
-62.08
-36.84
-10.18
14.58
34.98
49.86
59.20
63.74
64.40
62.03
57.35
51.03
43.86
36.70
30.39
25.59
22.60
21.40
21.70
23.11
25.23
27.68
30.03
31.77
32.36
31.35
28.56
24.20
18.72
12.68
6.52
0.37
-5.87
-12.43
-19.38
-26.59
-33.69
-40.21
-45.84
-50.53
-54.59
-58.73
-63.78
-70.54
-79.30
-89.50
-99.48
-106.66
-108.20
-101.86
-86.87
-64.36
-37.09
-8.65
17.59
39.21
55.13
65.38
70.64
71.78
69.61
64.87
58.36
50.98
43.73
37.50
32.88
30.06
28.76
28.54
28.93
29.67
30.75
32.26
34.10
35.88
36.90
36.40
33.90
29.47
23.74
17.64
12.00
7.19
2.95
-1.37
-6.51
-12.84
-20.17
-27.74
-34.63
-40.10
-44.01
-46.85
-49.64
-53.61
-59.72
-68.31
-78.78
-89.46
-97.84
-101.08
-96.85
-84.11
-63.66
-37.96
-10.48
15.29
36.76
52.62
62.78
67.83
